Frequency (Hz),Impedance (ohms),Phase (Radians),Temperature (C),Humidity (%)
49999.999999954525,7.49556555743272e-05,0.0010517200802869589,0,0
50100.03334454893,6.960154286061897e-05,0.0010435291880682013,0,0
50200.06668893018,6.986038986226255e-05,0.0010456440806589655,0,0
50300.10003331142,7.012381573491646e-05,0.0010477689961265017,0,0
50400.13337769267,7.038812727177324e-05,0.0010498499468829087,0,0
50500.166722287075,7.064355092526866e-05,0.0010519687246137123,0,0
50600.20006666832,7.090818259991122e-05,0.0010541190218910689,0,0
50700.233411049565,7.117047650284042e-05,0.0010562094851378453,0,0
50800.26675564398,7.14317396867555e-05,0.0010583050055816589,0,0
50900.30010002522,7.169175756096584e-05,0.0010603807256017142,0,0
51000.33344440647,7.1957361868242e-05,0.0010625018677542692,0,0
51100.36678900087,7.221608134478871e-05,0.0010646132830248796,0,0
51200.40013338212,7.248923600911918e-05,0.0010667451492304646,0,0
51300.43347776336,7.274843640909289e-05,0.0010688304485425195,0,0
51400.46682235777,7.301828687382482e-05,0.0010710040714432608,0,0
51500.50016673902,7.327646418481856e-05,0.00107303739244327,0,0
51600.53351112026,7.353632709153677e-05,0.0010751724716931178,0,0
51700.56685571467,7.380487119329006e-05,0.0010772798685481835,0,0
51800.60020009591,7.407161975457065e-05,0.0010793833537288094,0,0
51900.63354447716,7.433271889104083e-05,0.0010814839044322386,0,0
52000.6668888584,7.460374572283996e-05,0.0010835887274628206,0,0
52100.700233452815,7.486857875963308e-05,0.0010856708083148007,0,0
52200.73357783406,7.513488433417248e-05,0.001087812661938813,0,0
52300.766922215305,7.540509168141836e-05,0.0010898929362435294,0,0
52400.80026680971,7.567971103587057e-05,0.0010920454915929205,0,0
52500.83361119096,7.595427986760447e-05,0.001094152775014264,0,0
52600.8669555722,7.622319819478676e-05,0.001096271613757287,0,0
52700.900300166606,7.65071402774909e-05,0.0010984003774292294,0,0
52800.933644547855,7.67851613736355e-05,0.0011005150972696156,0,0
52900.966988929096,7.70812196344526e-05,0.0011027090683540686,0,0
53001.00033352351,7.738512825409999e-05,0.0011048951963936033,0,0
53101.03367790475,7.76959715621074e-05,0.0011070435519719862,0,0
53201.067022286,7.803294635491051e-05,0.0011092334601710216,0,0
53301.100366880404,7.842259390850518e-05,0.0011115060171182761,0,0
53401.13371126165,7.888159031290918e-05,0.00111375284110992,0,0
53501.167055642894,7.948532668067949e-05,0.0011159986461440653,0,0
53601.2004002373,8.03194210298047e-05,0.0011180925202795428,0,0
53701.23374461855,8.12817409260719e-05,0.0011197690470936218,0,0
53801.2670889998,8.177386687102762e-05,0.0011209181157857677,0,0
53901.30043338104,8.159952297523213e-05,0.0011223197792211508,0,0
54001.333777975444,8.132017697439377e-05,0.0011241921530491465,0,0
54101.36712235669,8.120352169629847e-05,0.0011263217094084912,0,0
54201.400466737934,8.123103750781788e-05,0.001128467122695581,0,0
54301.43381133235,8.134481397012704e-05,0.0011306142050682083,0,0
54401.46715571359,8.150704734858193e-05,0.001132812890902051,0,0
54501.50050009484,8.171291909768444e-05,0.0011349434220699341,0,0
54601.53384468924,8.192868547384486e-05,0.0011370879411725819,0,0
54701.56718907049,8.217165851684524e-05,0.0011392295075553338,0,0
54801.60053345173,8.24129602710339e-05,0.0011413312154956632,0,0
54901.63387804614,8.267432848680643e-05,0.0011434998512696436,0,0
55001.667222427386,8.292568933288833e-05,0.0011456264623920139,0,0
55101.700566808635,8.318706381430725e-05,0.0011477493168915993,0,0
55201.73391140304,8.346065345490362e-05,0.0011498342942580886,0,0
55301.76725578428,8.372644853561373e-05,0.0011519518007879796,0,0
55401.80060016553,8.400153980675456e-05,0.001154118631960009,0,0
55501.83394454677,8.427348083652523e-05,0.001156192001433467,0,0
55601.867289141184,8.455105289239872e-05,0.0011582893118808296,0,0
55701.900633522426,8.482436812272726e-05,0.0011603894409856989,0,0
55801.933977903675,8.510156218160434e-05,0.0011624801504859943,0,0
55901.96732249808,8.538202022416862e-05,0.0011646125457729685,0,0
56002.00066687933,8.566478809791943e-05,0.0011667066014336028,0,0
56102.03401126057,8.594132329982351e-05,0.0011688394776296343,0,0
56202.067355854975,8.622503520196188e-05,0.001170940088628877,0,0
56302.100700236224,8.650198839302509e-05,0.0011730012408719425,0,0
56402.13404461747,8.678071336888655e-05,0.0011750947152315378,0,0
56502.16738921188,8.706934040409283e-05,0.0011771935747311576,0,0
56602.20073359312,8.734986631844865e-05,0.0011792982130931539,0,0
56702.23407797437,8.762864248964286e-05,0.0011813879360665035,0,0
56802.26742256877,8.791511309149296e-05,0.001183502223668295,0,0
56902.30076695002,8.820270261311608e-05,0.0011855703598285287,0,0
57002.33411133126,8.849171134367177e-05,0.0011876922767118017,0,0
57102.36745571251,8.877860160492698e-05,0.0011897808777964324,0,0
57202.40080030692,8.905865840184715e-05,0.0011918415965672061,0,0
57302.434144688166,8.93532566124189e-05,0.0011939564233512353,0,0
57402.46748906941,8.964500918906054e-05,0.001196053724119245,0,0
57502.50083366381,8.993699510406614e-05,0.0011981503206380446,0,0
57602.53417804506,9.02277493450338e-05,0.0012002130567143076,0,0
57702.56752242631,9.05257911875608e-05,0.0012023425417984188,0,0
57802.600867020716,9.083017581774439e-05,0.0012044417991587141,0,0
57902.63421140196,9.113012177973605e-05,0.0012065854501302946,0,0
58002.667555783206,9.142758997931241e-05,0.0012086560699614134,0,0
58102.70090037761,9.173035173729146e-05,0.001210752470239649,0,0
58202.73424475886,9.203668905818667e-05,0.0012128432449055404,0,0
58302.7675891401,9.23509299524567e-05,0.0012149732420634058,0,0
58402.800933734514,9.267670469332539e-05,0.0012171306231682016,0,0
58502.834278115755,9.29882244359174e-05,0.0012191850322011157,0,0
58602.867622497004,9.329964330002903e-05,0.0012212939551211725,0,0
58702.90096709141,9.359885401643834e-05,0.0012233410215479932,0,0
58802.93431147265,9.388122943095602e-05,0.0012254657996988631,0,0
58902.9676558539,9.417238915031747e-05,0.001227549596732392,0,0
59003.00100023515,9.446749132290017e-05,0.0012297000976367557,0,0
59103.03434482955,9.476202201612011e-05,0.0012318317035124998,0,0
59203.067689210795,9.506173724262199e-05,0.001233893587974041,0,0
59303.101033592044,9.536353214985145e-05,0.001236025399387893,0,0
59403.13437818645,9.56677272231916e-05,0.0012381169102573123,0,0
59503.1677225677,9.597426145384451e-05,0.0012402453823307119,0,0
59603.20106694894,9.627400017395438e-05,0.0012423278750451068,0,0
59703.23441154335,9.658749794901613e-05,0.0012444974116523537,0,0
59803.26775592459,9.689843789933309e-05,0.001246625903515534,0,0
59903.30110030584,9.72041707540198e-05,0.001248745124791424,0,0
60003.33444490025,9.751400183067275e-05,0.001250798976029908,0,0
60103.36778928149,9.782014409406583e-05,0.001252889395393895,0,0
60203.40113366274,9.8133837729251e-05,0.0012550174812189679,0,0
60303.43447825714,9.844361690306019e-05,0.0012571250381063189,0,0
60403.46782263839,9.875739098991117e-05,0.0012592886229297498,0,0
60503.50116701963,9.907757554941099e-05,0.0012613958395624645,0,0
60603.53451140088,9.939448391963229e-05,0.0012635345716225672,0,0
60703.56785599529,9.971879229329074e-05,0.0012656821574317041,0,0
60803.601200376535,0.0001000416671326292,0.0012678345116481672,0,0
60903.63454475778,0.00010036836027342796,0.0012699915998954064,0,0
61003.66788935219,0.00010070102647879714,0.0012721697917818472,0,0
61103.70123373343,0.00010104203684668217,0.001274363362295323,0,0
61203.73457811468,0.00010139651426727043,0.0012765634772843072,0,0
61303.767922709085,0.00010177609810346465,0.0012788050824667032,0,0
61403.801267090326,0.00010218944845702914,0.0012811020317470456,0,0
61503.834611471575,0.00010266916727878425,0.0012834069639439487,0,0
61603.86795606598,0.00010331424065767317,0.0012858142947292132,0,0
61703.90130044723,0.00010437923020386618,0.0012883552036267144,0,0
61803.93464482847,0.00010644224888356639,0.0012903603293637762,0,0
61903.96798942288,0.00010799292163641652,0.0012896600893558831,0,0
62004.001333804124,0.00010616017850209018,0.001290103294865079,0,0
62104.03467818537,0.00010515170278919259,0.0012925442198798867,0,0
62204.06802277978,0.00010494288824450724,0.0012950978954379795,0,0
62304.10136716103,0.0001050316599976293,0.0012975576464990823,0,0
62404.13471154227,0.00010523174182077145,0.0012998762738197223,0,0
62504.16805592352,0.00010548567186582988,0.0013021421484766707,0,0
62604.20140051792,0.00010577177618498583,0.001304393611243749,0,0
62704.234744899164,0.00010606347605274119,0.0013065877725761343,0,0
62804.26808928041,0.00010636791111326978,0.0013087536516648251,0,0
62904.30143387482,0.00010668259585985299,0.0013109154998313113,0,0
63004.33477825607,0.00010701105951411978,0.0013131194220335394,0,0
63104.36812263731,0.00010733520305755519,0.0013152953300429526,0,0
63204.40146723172,0.0001076605487278906,0.0013174363813741082,0,0
63304.43481161296,0.00010799386846474126,0.0013195786941885062,0,0
63404.46815599421,0.0001083367423338426,0.001321741595986005,0,0
63504.501500588616,0.00010868851546327405,0.001323922267990722,0,0
63604.534844969865,0.00010904389014878253,0.0013261054603357857,0,0
63704.56818935111,0.00010941550353607346,0.0013282378538054004,0,0
63804.60153394552,0.00010979619749741879,0.0013303791965332465,0,0
63904.63487832676,0.00011021000042196696,0.0013326126312908722,0,0
64004.668222708,0.00011066157903594268,0.0013348585062933405,0,0
64104.70156708925,0.00011115469034530898,0.001337050442634963,0,0
64204.734911683656,0.00011171786410287207,0.0013392621882168613,0,0
64304.768256064905,0.00011239177487800951,0.0013414777553079679,0,0
64404.801600446146,0.00011323732032573587,0.0013435728735050844,0,0
64504.83494504056,0.0001142997741161906,0.001345493903529898,0,0
64604.8682894218,0.00011548683108566479,0.001346986703656076,0,0
64704.90163380305,0.00011624456037926711,0.001347702410336439,0,0
64804.934978397454,0.00011600262930429546,0.0013483823222473646,0,0
64904.9683227787,0.00011521972447659823,0.0013498710650312073,0,0
65005.001667159944,0.00011461911633045735,0.0013519429655838462,0,0
65105.03501175436,0.00011434855241545094,0.0013542669486335378,0,0
65205.0683561356,0.00011430574916644475,0.0013566161252958043,0,0
65305.10170051684,0.00011440200797559704,0.0013589561470488312,0,0
65405.13504511125,0.00011456926612190435,0.0013611997072333236,0,0
65505.16838949249,0.00011478629269150215,0.001363433636142232,0,0
65605.20173387374,0.0001150337498428288,0.0013656316515881777,0,0
65705.23507825499,0.00011530454249600909,0.0013678070821959813,0,0
65805.26842284939,0.0001155845456979436,0.0013700078667640832,0,0
65905.30176723065,0.00011587195671535904,0.0013721540906863649,0,0
66005.33511161189,0.00011617051688976043,0.001374287669406621,0,0
66105.3684562063,0.00011646837480884646,0.0013763865405740138,0,0
66205.40180058754,0.00011677213560864198,0.0013785610737040966,0,0
66305.43514496878,0.00011708338296154646,0.0013806731994642463,0,0
66405.4684895632,0.00011739886556775245,0.0013827932281121557,0,0
66505.50183394444,0.0001177073702323163,0.0013848676560508286,0,0
66605.53517832568,0.00011802738891195875,0.0013869818694009128,0,0
66705.56852292009,0.00011834707359918971,0.0013890981999024382,0,0
66805.60186730133,0.00011867593186396105,0.0013912266249284078,0,0
66905.63521168257,0.00011899306637974575,0.0013932741092595412,0,0
67005.66855627699,0.00011931962263153251,0.0013953584488178529,0,0
67105.70190065823,0.00011965776065386754,0.001397543211019692,0,0
67205.73524503948,0.00011999210796767179,0.0013996334313199133,0,0
67305.76858963388,0.00012032897145954982,0.001401751132457756,0,0
67405.80193401514,0.00012066698664250889,0.001403875287358479,0,0
67505.83527839638,0.00012100840540915226,0.0014059727460752432,0,0
67605.86862277762,0.00012135288852573927,0.001408130013686788,0,0
67705.90196737203,0.00012169676005379466,0.0014102364174454558,0,0
67805.93531175327,0.00012204292747903825,0.001412344549318934,0,0
67905.96865613452,0.0001223932564135872,0.0014144605439915302,0,0
68006.00200072893,0.00012273940980082694,0.0014165741299312477,0,0
68106.03534511017,0.00012308748964270986,0.0014187117688512535,0,0
68206.06868949141,0.00012343799469207724,0.0014208286169018754,0,0
68306.10203408582,0.0001237930621084263,0.0014229408039582064,0,0
68406.13537846706,0.0001241431138717723,0.0014250503572233637,0,0
68506.16872284832,0.00012448843989535887,0.0014271228497396567,0,0
68606.20206744272,0.00012484428928654525,0.0014292797166467965,0,0
68706.23541182397,0.00012520517638537205,0.0014314674957501812,0,0
68806.26875620522,0.00012555818854722965,0.001433532235372418,0,0
68906.30210079963,0.0001259115151813109,0.0014356149370577864,0,0
69006.33544518087,0.0001262657197476082,0.0014377308039404822,0,0
69106.36878956211,0.00012662939788364236,0.0014398835742370562,0,0
69206.40213394335,0.00012697812432011437,0.0014419824831858115,0,0
69306.43547853777,0.0001273498628629561,0.001444157227925322,0,0
69406.468822919,0.00012770656483570512,0.0014463348753348249,0,0
69506.50216730025,0.00012806432731819796,0.0014484294988866327,0,0
69606.53551189466,0.00012842300863443327,0.0014505140828988945,0,0
69706.5688562759,0.0001287919296747765,0.0014527076928338711,0,0
69806.60220065716,0.00012915075154553297,0.0014548159429937481,0,0
69906.63554525156,0.000129509386647751,0.0014568700639417255,0,0
70006.66888963281,0.00012987049070339323,0.0014590424868415211,0,0
70106.70223401405,0.00013023357293724967,0.0014611734892391091,0,0
70206.73557860847,0.00013059764573100145,0.00146324472579882,0,0
70306.76892298971,0.00013096671718722824,0.0014653726600290524,0,0
70406.80226737095,0.000131338074446637,0.0014675789057775066,0,0
70506.83561196536,0.00013171165085881635,0.0014697077239852739,0,0
70606.8689563466,0.0001320785776548345,0.0014717916270530816,0,0
70706.90230072784,0.00013246064767515154,0.001473972219679716,0,0
70806.93564510909,0.00013282871201545163,0.0014760951996379734,0,0
70906.9689897035,0.0001332131167967969,0.0014782411368574962,0,0
71007.00233408474,0.00013359557261383764,0.0014804364184829374,0,0
71107.035678466,0.00013398456971027098,0.0014825787132270664,0,0
71207.0690230604,0.00013437144847630592,0.0014847170047425043,0,0
71307.10236744165,0.00013477116449391992,0.0014868625508534965,0,0
71407.13571182289,0.0001351815893086015,0.0014890183778740857,0,0
71507.1690564173,0.00013562168571675586,0.001491295477597657,0,0
71607.20240079855,0.00013608418315045926,0.0014935908915975741,0,0
71707.23574517979,0.0001365980628270748,0.001495854898849679,0,0
71807.2690897742,0.00013720403773574393,0.0014981673581809906,0,0
71907.30243415544,0.0001380094817520694,0.0015005093520511752,0,0
72007.33577853668,0.00013919755884841988,0.0015026898104320424,0,0
72107.3691231311,0.0001406260857920636,0.0015040388696127222,0,0
72207.40246751234,0.00014103271402190435,0.0015046533909595268,0,0
72307.43581189358,0.0001405310217637395,0.0015060125769971486,0,0
72407.46915648799,0.00014017758206474534,0.001507999053983743,0,0
72507.50250086923,0.00014008065102844096,0.0015101469131829364,0,0
72607.53584525049,0.00014016823670298342,0.0015124063425999803,0,0
72707.56918963173,0.00014034425618329093,0.0015145816943572552,0,0
72807.60253422614,0.00014058373137942296,0.001516772783021311,0,0
72907.63587860738,0.00014086161656160707,0.0015189750442565876,0,0
73007.66922298862,0.00014116099332619843,0.001521152070731434,0,0
73107.70256758304,0.00014147199368659747,0.0015233401730031329,0,0
73207.73591196428,0.00014180578874015823,0.0015254871573102174,0,0
73307.76925634552,0.00014212935532752086,0.0015275917576910516,0,0
73407.80260093993,0.0001424710618746112,0.0015297482661973344,0,0
73507.83594532117,0.00014281459277101004,0.0015319035091046309,0,0
73607.86928970242,0.00014316237860169615,0.001534021458717057,0,0
73707.90263429683,0.00014350584985984316,0.0015360675860742257,0,0
73807.93597867807,0.00014385669522611364,0.0015381787773847567,0,0
73907.96932305933,0.00014421313513924647,0.0015403335373966275,0,0
74008.00266765372,0.0001445657855111733,0.0015424214023564188,0,0
74108.03601203498,0.0001449176727962067,0.0015445476452405182,0,0
74208.06935641622,0.00014527905363918958,0.001546653443274648,0,0
74308.10270079746,0.00014563216703807278,0.0015486953533981503,0,0
74408.13604539188,0.0001459967290236878,0.00155083755889257,0,0
74508.16938977312,0.00014636549808738088,0.0015529748539902769,0,0
74608.20273415436,0.00014672832221314548,0.0015550720461197653,0,0
74708.23607874877,0.00014708660794724598,0.0015571090929822522,0,0
74808.26942313001,0.0001474580280006521,0.0015592373343297412,0,0
74908.30276751125,0.00014783296285724218,0.0015613670044300348,0,0
75008.33611210567,0.00014820577119163325,0.0015634843600459106,0,0
75108.36945648691,0.00014857660919954013,0.001565586863957342,0,0
75208.40280086816,0.00014894647852496914,0.001567641246542755,0,0
75308.43614546256,0.00014933156560694536,0.0015698268872023115,0,0
75408.46948984382,0.00014970528875512992,0.0015719136795370884,0,0
75508.50283422506,0.00015009074408700931,0.0015740519919576292,0,0
75608.53617881946,0.0001504695931483829,0.0015761576542214905,0,0
75708.56952320071,0.0001508621159193107,0.0015783457412550167,0,0
75808.60286758195,0.00015123905120718393,0.0015804021875043123,0,0
75908.63621217637,0.00015162417346491078,0.0015825154405169903,0,0
76008.66955655761,0.00015201833129584405,0.0015846794712796866,0,0
76108.70290093885,0.0001524110173854941,0.0015867767052878056,0,0
76208.73624532009,0.00015280891201042927,0.0015889134358745174,0,0
76308.7695899145,0.00015320981616415247,0.0015910667033337438,0,0
76408.80293429575,0.00015361369378891915,0.001593233201495256,0,0
76508.836278677,0.0001540156223953259,0.00159532782606317,0,0
76608.8696232714,0.0001544272840514759,0.0015974822471362107,0,0
76708.90296765266,0.00015484009769430154,0.0015995960310537952,0,0
76808.9363120339,0.0001552569409401045,0.00160174621739493,0,0
76908.9696566283,0.00015569087407475793,0.001603996274642798,0,0
77009.00300100955,0.00015611118076487728,0.001606028504609505,0,0
77109.03634539079,0.00015655654124587865,0.001608227605973325,0,0
77209.0696899852,0.0001570020601751347,0.001610442955894815,0,0
77309.10303436645,0.0001574524463648276,0.0016125160409043696,0,0
77409.13637874769,0.00015791829828888822,0.001614696336045887,0,0
77509.1697233421,0.00015839127445746811,0.001616807167880609,0,0
77609.20306772334,0.0001588797611094609,0.0016189938088676816,0,0
77709.23641210458,0.00015937420406814,0.0016211074832312227,0,0
77809.26975648584,0.00015987735511274674,0.001623204648027795,0,0
77909.30310108024,0.00016037748939334154,0.001625224426489697,0,0
78009.3364454615,0.00016087620562001207,0.001627335304181944,0,0
78109.36978984273,0.00016134211830175205,0.0016293401530687141,0,0
78209.40313443713,0.00016177720284899814,0.0016313623774680361,0,0
78309.43647881839,0.00016216941974389262,0.0016333892834212078,0,0
78409.46982319963,0.00016254242173581722,0.0016354172599097046,0,0
78509.50316779404,0.00016287792105271898,0.0016374479596149357,0,0
78609.53651217528,0.00016319759633634848,0.00163948662094571,0,0
78709.56985655653,0.00016352000606656804,0.0016415553945377864,0,0
78809.60320115094,0.0001638488448056776,0.0016437139324443012,0,0
78909.63654553218,0.00016418104231989675,0.0016457467490081166,0,0
79009.66988991342,0.00016452800558144586,0.001647877136823594,0,0
79109.70323450783,0.00016488024852008627,0.0016499685033511868,0,0
79209.73657888907,0.00016524015675279272,0.0016521191104225728,0,0
79309.76992327033,0.00016562004314710834,0.0016542954414051976,0,0
79409.80326765157,0.00016600841706250363,0.0016564824092945181,0,0
79509.83661224597,0.00016639074818243887,0.0016586429511979252,0,0
79609.86995662723,0.00016677663292081658,0.0016607532891167456,0,0
79709.90330100847,0.00016716494013858753,0.001662902542336384,0,0
79809.93664560288,0.00016755374859985759,0.0016650156164575711,0,0
79909.96998998412,0.00016795433203829093,0.0016671809765157716,0,0
