Frequency (Hz),Impedance (ohms),Phase (Radians),Temperature (C),Humidity (%)
49999.999999954525,6.227794316968641e-05,0.0009848051378703619,0,0
50100.03334454893,5.8211850961150085e-05,0.0009784735556000637,0,0
50200.06668893018,5.843998544408406e-05,0.0009804411311309105,0,0
50300.10003331142,5.8672260273943704e-05,0.0009824065701605053,0,0
50400.13337769267,5.891544548129613e-05,0.0009844500889909383,0,0
50500.166722287075,5.915127863789935e-05,0.000986435283152638,0,0
50600.20006666832,5.939606953876047e-05,0.0009884279731547261,0,0
50700.233411049565,5.9646505076074095e-05,0.0009904482415919538,0,0
50800.26675564398,5.989834546477331e-05,0.0009924520378213947,0,0
50900.30010002522,6.0163824112893155e-05,0.0009944742562061888,0,0
51000.33344440647,6.043113420595905e-05,0.0009964855932529176,0,0
51100.36678900087,6.07096722346937e-05,0.000998466460531797,0,0
51200.40013338212,6.1000560134345033e-05,0.0010004983942203986,0,0
51300.43347776336,6.130111250991107e-05,0.0010025088495044985,0,0
51400.46682235777,6.161683292261154e-05,0.0010045112489012401,0,0
51500.50016673902,6.194816396027176e-05,0.0010064898312678267,0,0
51600.53351112026,6.230195242524638e-05,0.0010084511181889806,0,0
51700.56685571467,6.267311594227503e-05,0.0010104327219977735,0,0
51800.60020009591,6.305859682323929e-05,0.0010123417932123033,0,0
51900.63354447716,6.344829144479104e-05,0.001014206604845778,0,0
52000.6668888584,6.382154826384495e-05,0.0010160034821023892,0,0
52100.700233452815,6.415520712700957e-05,0.0010177789628362402,0,0
52200.73357783406,6.441951493745922e-05,0.0010194695310302194,0,0
52300.766922215305,6.461590687581131e-05,0.0010212036426699958,0,0
52400.80026680971,6.473834303412654e-05,0.0010229510659406436,0,0
52500.83361119096,6.481342854845438e-05,0.0010247478798736506,0,0
52600.8669555722,6.487355307183512e-05,0.0010266008553206799,0,0
52700.900300166606,6.493305580388274e-05,0.0010285327661765323,0,0
52800.933644547855,6.501133028999265e-05,0.0010304717080544595,0,0
52900.966988929096,6.510717324209835e-05,0.0010324499859750884,0,0
53001.00033352351,6.522419722580508e-05,0.0010344124962922646,0,0
53101.03367790475,6.536425347789267e-05,0.001036427901352155,0,0
53201.067022286,6.551896223859866e-05,0.0010384113621022917,0,0
53301.100366880404,6.568602145798919e-05,0.0010404262059882578,0,0
53401.13371126165,6.586582516085367e-05,0.001042422515915708,0,0
53501.167055642894,6.605872626860236e-05,0.0010444664907896764,0,0
53601.2004002373,6.625728707307186e-05,0.001046455076997978,0,0
53701.23374461855,6.645985707833698e-05,0.0010484616339696065,0,0
53801.2670889998,6.667175953978835e-05,0.0010505114986750171,0,0
53901.30043338104,6.688644807218512e-05,0.0010524633677699543,0,0
54001.333777975444,6.710108927250559e-05,0.0010544370120449459,0,0
54101.36712235669,6.731798743227563e-05,0.001056433924250384,0,0
54201.400466737934,6.754489711579757e-05,0.0010584294522269452,0,0
54301.43381133235,6.776685138054713e-05,0.0010604097615991783,0,0
54401.46715571359,6.799608117332421e-05,0.0010624199943464318,0,0
54501.50050009484,6.822427760521093e-05,0.0010643690052467235,0,0
54601.53384468924,6.846380075882066e-05,0.0010664049259583187,0,0
54701.56718907049,6.869649986811867e-05,0.0010683893215138827,0,0
54801.60053345173,6.893361601520419e-05,0.0010703646079835193,0,0
54901.63387804614,6.91688287571785e-05,0.0010723465857132514,0,0
55001.667222427386,6.940156667557678e-05,0.0010742884266271365,0,0
55101.700566808635,6.96407620634193e-05,0.001076292818076561,0,0
55201.73391140304,6.988191464089505e-05,0.001078286672477559,0,0
55301.76725578428,7.01265194335157e-05,0.001080255848390792,0,0
55401.80060016553,7.036426319213617e-05,0.0010822255743726267,0,0
55501.83394454677,7.060633775294158e-05,0.001084256939260691,0,0
55601.867289141184,7.084893442950525e-05,0.0010862171970235973,0,0
55701.900633522426,7.10976802033482e-05,0.001088198999393919,0,0
55801.933977903675,7.133733504159002e-05,0.0010901644232859259,0,0
55901.96732249808,7.158390756192621e-05,0.0010921763603724715,0,0
56002.00066687933,7.183284537916486e-05,0.0010941556085815052,0,0
56102.03401126057,7.207294231599578e-05,0.0010961259964179973,0,0
56202.067355854975,7.232390090374857e-05,0.0010981236387104822,0,0
56302.100700236224,7.257243679930745e-05,0.0011001239871484324,0,0
56402.13404461747,7.281622345739349e-05,0.001102084554282504,0,0
56502.16738921188,7.30676098737719e-05,0.001104060351525827,0,0
56602.20073359312,7.33111175816137e-05,0.001106007286213837,0,0
56702.23407797437,7.356316100476222e-05,0.0011079880578247741,0,0
56802.26742256877,7.38199586008545e-05,0.0011099876202015663,0,0
56902.30076695002,7.407637945827993e-05,0.0011119849496585455,0,0
57002.33411133126,7.432767364368682e-05,0.0011139240111598893,0,0
57102.36745571251,7.459026458491985e-05,0.0011159310218506677,0,0
57202.40080030692,7.485077770520764e-05,0.001117910961001683,0,0
57302.434144688166,7.511598962372803e-05,0.0011199083334519305,0,0
57402.46748906941,7.538508164417997e-05,0.0011218662080337803,0,0
57502.50083366381,7.565819853330683e-05,0.0011238354700615042,0,0
57602.53417804506,7.593229781447694e-05,0.0011257672367322232,0,0
57702.56752242631,7.619700497931303e-05,0.0011277275470781146,0,0
57802.600867020716,7.643162558178185e-05,0.001129647244440246,0,0
57902.63421140196,7.666197341096956e-05,0.00113161788655168,0,0
58002.667555783206,7.689274432079552e-05,0.0011335965926704279,0,0
58102.70090037761,7.713194202481291e-05,0.0011355888877842076,0,0
58202.73424475886,7.73728653776154e-05,0.0011375368668925863,0,0
58302.7675891401,7.762295324169044e-05,0.0011395215184056549,0,0
58402.800933734514,7.787025790591896e-05,0.0011414970383997708,0,0
58502.834278115755,7.812768815849658e-05,0.0011434932044192072,0,0
58602.867622497004,7.838588410221027e-05,0.001145500716501966,0,0
58702.90096709141,7.863844742963193e-05,0.0011474466872082728,0,0
58802.93431147265,7.889833247036007e-05,0.001149433390629867,0,0
58902.9676558539,7.915658605569398e-05,0.001151421449410604,0,0
59003.00100023515,7.94200144025837e-05,0.0011533969013947105,0,0
59103.03434482955,7.967905578569371e-05,0.001155353806377876,0,0
59203.067689210795,7.994139487079627e-05,0.00115734559351038,0,0
59303.101033592044,8.020820116743886e-05,0.0011593421539624167,0,0
59403.13437818645,8.046891956582063e-05,0.0011613448946257957,0,0
59503.1677225677,8.073093635981329e-05,0.0011632688136739865,0,0
59603.20106694894,8.0991713214753e-05,0.0011652518186009153,0,0
59703.23441154335,8.125254562230797e-05,0.001167219756837899,0,0
59803.26775592459,8.152583005880125e-05,0.0011692242060657933,0,0
59903.30110030584,8.179048639985052e-05,0.0011712158461892777,0,0
60003.33444490025,8.205794596043415e-05,0.00117323375670236,0,0
60103.36778928149,8.232469886804932e-05,0.0011751793696352637,0,0
60203.40113366274,8.259590088067025e-05,0.0011772014939464104,0,0
60303.43447825714,8.286437015594927e-05,0.0011792142927286836,0,0
60403.46782263839,8.314118544531547e-05,0.0011812255129136147,0,0
60503.50116701963,8.341188006990256e-05,0.001183198011674904,0,0
60603.53451140088,8.367785743596722e-05,0.0011851434863981998,0,0
60703.56785599529,8.39547262997917e-05,0.0011871453195993309,0,0
60803.601200376535,8.423198547431492e-05,0.0011891582561040284,0,0
60903.63454475778,8.451046157599272e-05,0.0011911640683019405,0,0
61003.66788935219,8.478947776448224e-05,0.0011931297135976816,0,0
61103.70123373343,8.507554980977748e-05,0.0011951406904802493,0,0
61203.73457811468,8.535722076160014e-05,0.001197103937741308,0,0
61303.767922709085,8.564520842854588e-05,0.0011991342738837253,0,0
61403.801267090326,8.59336785051023e-05,0.0012011752349482586,0,0
61503.834611471575,8.622580172993156e-05,0.0012031705333142317,0,0
61603.86795606598,8.65214246586745e-05,0.0012052196776605295,0,0
61703.90130044723,8.682560720551163e-05,0.0012072743452271365,0,0
61803.93464482847,8.714917211647e-05,0.0012093201937996487,0,0
61903.96798942288,8.748589165517384e-05,0.0012113850289420308,0,0
62004.001333804124,8.786044954387447e-05,0.0012134633478320495,0,0
62104.03467818537,8.829310147871901e-05,0.0012155968770703265,0,0
62204.06802277978,8.881459538886437e-05,0.001217637216628173,0,0
62304.10136716103,8.943054037167738e-05,0.0012195882310080666,0,0
62404.13471154227,9.002275596948636e-05,0.0012213730239006117,0,0
62504.16805592352,9.04052374676716e-05,0.0012230790368513256,0,0
62604.20140051792,9.066675449340085e-05,0.0012249010126266524,0,0
62704.234744899164,9.094858743240183e-05,0.0012268192763271943,0,0
62804.26808928041,9.133675785558683e-05,0.0012288735204683027,0,0
62904.30143387482,9.184041200279073e-05,0.0012308664788031804,0,0
63004.33477825607,9.247253493107531e-05,0.0012327736376551263,0,0
63104.36812263731,9.320483560554535e-05,0.0012344728014394134,0,0
63204.40146723172,9.389700416083743e-05,0.0012359003076649919,0,0
63304.43481161296,9.42792901382856e-05,0.0012370722778481977,0,0
63404.46815599421,9.415268303627247e-05,0.0012381773613606608,0,0
63504.501500588616,9.374656461054038e-05,0.001239716865460286,0,0
63604.534844969865,9.337206131582548e-05,0.0012415962366372109,0,0
63704.56818935111,9.316447105394596e-05,0.0012437268670988588,0,0
63804.60153394552,9.311056250884695e-05,0.0012458346676642248,0,0
63904.63487832676,9.316791836235831e-05,0.001247958353341454,0,0
64004.668222708,9.329606123334867e-05,0.001250106490929809,0,0
64104.70156708925,9.347699185414502e-05,0.0012522590946848593,0,0
64204.734911683656,9.368451997890398e-05,0.0012543407778561203,0,0
64304.768256064905,9.391520224526348e-05,0.001256369258444846,0,0
64404.801600446146,9.415979290887551e-05,0.0012584484932017137,0,0
64504.83494504056,9.4414880271575e-05,0.001260549599117911,0,0
64604.8682894218,9.46768284089452e-05,0.0012626047070054343,0,0
64704.90163380305,9.494510282241666e-05,0.0012646467015382846,0,0
64804.934978397454,9.521837337349309e-05,0.0012666683987474759,0,0
64904.9683227787,9.549126709900334e-05,0.0012686802570943405,0,0
65005.001667159944,9.576989818870069e-05,0.0012706763960709819,0,0
65105.03501175436,9.604805064103904e-05,0.0012727293780931829,0,0
65205.0683561356,9.63355552716042e-05,0.0012747633879434317,0,0
65305.10170051684,9.661413608901752e-05,0.0012767261426256061,0,0
65405.13504511125,9.690159424418317e-05,0.0012787185718920952,0,0
65505.16838949249,9.71811277019121e-05,0.0012807133291483082,0,0
65605.20173387374,9.747615693038301e-05,0.00128276083699084,0,0
65705.23507825499,9.776662834827054e-05,0.0012847934398863288,0,0
65805.26842284939,9.804881099545957e-05,0.0012866905971566267,0,0
65905.30176723065,9.833892359236247e-05,0.0012887354448959645,0,0
66005.33511161189,9.863007662252886e-05,0.001290730969623039,0,0
66105.3684562063,9.891894351423246e-05,0.0012927185944271943,0,0
66205.40180058754,9.921181001701522e-05,0.001294696130288513,0,0
66305.43514496878,9.950502990718016e-05,0.001296693339036176,0,0
66405.4684895632,9.979645530513821e-05,0.001298661705320744,0,0
66505.50183394444,0.00010009687958562996,0.001300679599978464,0,0
66605.53517832568,0.00010038501133575674,0.0013026344950172657,0,0
66705.56852292009,0.00010067915712177355,0.0013046482941530563,0,0
66805.60186730133,0.00010097549816461599,0.0013066210416065197,0,0
66905.63521168257,0.00010127117902167848,0.0013086236459399158,0,0
67005.66855627699,0.0001015689371016547,0.0013106174675887644,0,0
67105.70190065823,0.00010186778270064192,0.0013125851770773107,0,0
67205.73524503948,0.00010216896417734781,0.0013146059087522427,0,0
67305.76858963388,0.00010246589833953689,0.0013166115622117794,0,0
67405.80193401514,0.00010276962111643153,0.0013185999774323227,0,0
67505.83527839638,0.00010306978386349274,0.0013205736445803104,0,0
67605.86862277762,0.00010336675037344117,0.0013225588971917262,0,0
67705.90196737203,0.00010366867512194234,0.001324532736882765,0,0
67805.93531175327,0.00010396973722087599,0.0013265004222741976,0,0
67905.96865613452,0.00010427427301550897,0.0013285393090437085,0,0
68006.00200072893,0.00010457911451990332,0.0013305351357500318,0,0
68106.03534511017,0.00010488288678425108,0.0013325098410636898,0,0
68206.06868949141,0.0001051901229588872,0.0013344650509277865,0,0
68306.10203408582,0.00010549445115788285,0.0013364683845962426,0,0
68406.13537846706,0.00010580312784341756,0.0013384527720113244,0,0
68506.16872284832,0.00010611638274787557,0.0013404956824739746,0,0
68606.20206744272,0.00010642228765500849,0.0013424506891524036,0,0
68706.23541182397,0.00010672946637756068,0.0013444642828930938,0,0
68806.26875620522,0.00010704799387715745,0.0013464612257124103,0,0
68906.30210079963,0.00010735610981915897,0.0013484731812729307,0,0
69006.33544518087,0.00010767559537967312,0.0013504895129799758,0,0
69106.36878956211,0.00010799315144269939,0.0013524893108518773,0,0
69206.40213394335,0.00010830957708787229,0.0013545115953533706,0,0
69306.43547853777,0.00010863028912215,0.0013564770152787995,0,0
69406.468822919,0.00010895031202838389,0.0013584766206392806,0,0
69506.50216730025,0.00010928270241530568,0.0013605291259803842,0,0
69606.53551189466,0.0001096075499698333,0.0013625234348354123,0,0
69706.5688562759,0.00010993750088409685,0.001364498684261989,0,0
69806.60220065716,0.0001102774562901097,0.0013665506758563546,0,0
69906.63554525156,0.00011061852727471928,0.00136854044994691,0,0
70006.66888963281,0.00011097281684223821,0.001370606200669442,0,0
70106.70223401405,0.00011133280387826029,0.0013725898219301526,0,0
70206.73557860847,0.00011170922603590196,0.0013746004901764362,0,0
70306.76892298971,0.00011210194781654038,0.001376640642553828,0,0
70406.80226737095,0.0001125199997210617,0.0013786766354835496,0,0
70506.83561196536,0.0001129579465225885,0.0013806592338653442,0,0
70606.8689563466,0.00011342241788807159,0.0013826546112043262,0,0
70706.90230072784,0.00011391060401073428,0.0013845643447073259,0,0
70806.93564510909,0.00011440114846398455,0.0013864104458322854,0,0
70906.9689897035,0.00011484850559238513,0.0013881417438834543,0,0
71007.00233408474,0.00011521431042989099,0.001389886935767002,0,0
71107.035678466,0.0001154827239349643,0.00139165092028645,0,0
71207.0690230604,0.00011565877713768265,0.001393388372619435,0,0
71307.10236744165,0.00011580698625266646,0.001395240978818245,0,0
71407.13571182289,0.00011595591753796375,0.0013971801752523394,0,0
71507.1690564173,0.00011612135942070496,0.0013991060856682828,0,0
71607.20240079855,0.00011631639710223566,0.0014011206166373177,0,0
71707.23574517979,0.00011652783356094202,0.0014030863887136953,0,0
71807.2690897742,0.00011676939125621355,0.0014050978231129813,0,0
71907.30243415544,0.00011702588161120052,0.0014071373527150934,0,0
72007.33577853668,0.00011729084836962795,0.0014091389026278569,0,0
72107.3691231311,0.00011756258892745294,0.0014110970439016723,0,0
72207.40246751234,0.0001178591881782873,0.0014131675985665107,0,0
72307.43581189358,0.00011815375910863022,0.0014152406837560218,0,0
72407.46915648799,0.000118450311492676,0.0014172282003322035,0,0
72507.50250086923,0.00011876389078477561,0.0014192598111207157,0,0
72607.53584525049,0.000119071726841852,0.0014212346436200845,0,0
72707.56918963173,0.0001193837264110237,0.001423201173364122,0,0
72807.60253422614,0.00011970050322456695,0.001425205488779377,0,0
72907.63587860738,0.00012001831615104054,0.0014271963837794947,0,0
73007.66922298862,0.0001203383223076012,0.0014291704125436145,0,0
73107.70256758304,0.00012065973011601021,0.0014311863274473005,0,0
73207.73591196428,0.0001209710728706851,0.0014331432596402173,0,0
73307.76925634552,0.00012129834513730272,0.0014351431012744802,0,0
73407.80260093993,0.00012162873763833885,0.0014371896764532768,0,0
73507.83594532117,0.0001219522532219578,0.0014391621542738822,0,0
73607.86928970242,0.0001222695926025515,0.0014411296488159293,0,0
73707.90263429683,0.00012259384087335464,0.0014430838871243967,0,0
73807.93597867807,0.00012292157681627873,0.0014450808831042022,0,0
73907.96932305933,0.00012324408019180757,0.0014470669496276663,0,0
74008.00266765372,0.0001235710650912632,0.0014490429122198713,0,0
74108.03601203498,0.0001239010011621646,0.0014510595002819682,0,0
74208.06935641622,0.00012422563508531544,0.0014529832552033417,0,0
74308.10270079746,0.00012455794820437094,0.0014550328944700152,0,0
74408.13604539188,0.00012488908117315965,0.0014570097126188875,0,0
74508.16938977312,0.00012521711123812847,0.00145903654444899,0,0
74608.20273415436,0.00012554758754021765,0.001460987521043416,0,0
74708.23607874877,0.00012587833561617244,0.0014629671196558322,0,0
74808.26942313001,0.0001262029062786697,0.0014649693205273098,0,0
74908.30276751125,0.00012654013299055397,0.0014669452862273629,0,0
75008.33611210567,0.0001268653864128117,0.0014689045939678812,0,0
75108.36945648691,0.00012720277123356438,0.0014709177695305606,0,0
75208.40280086816,0.00012754031329213953,0.0014729274732231104,0,0
75308.43614546256,0.00012786924415410965,0.001474898745121984,0,0
75408.46948984382,0.000128206757143151,0.0014769273617437292,0,0
75508.50283422506,0.00012854228423909742,0.0014788883513036145,0,0
75608.53617881946,0.00012887310590440859,0.0014808415139551704,0,0
75708.56952320071,0.00012920803116302197,0.001482854870209594,0,0
75808.60286758195,0.00012955353543969773,0.0014848538407062101,0,0
75908.63621217637,0.00012988629749091337,0.0014867792643709975,0,0
76008.66955655761,0.00013023172332350292,0.0014888692766862452,0,0
76108.70290093885,0.00013057666740746404,0.0014908859668153593,0,0
76208.73624532009,0.00013091553122319846,0.0014928383672921223,0,0
76308.7695899145,0.0001312621966992464,0.0014948703165185964,0,0
76408.80293429575,0.00013160726208302854,0.0014968611931672196,0,0
76508.836278677,0.00013195449522650126,0.0014988635807559165,0,0
76608.8696232714,0.00013230019504102027,0.0015008423137470822,0,0
76708.90296765266,0.00013264247127679993,0.0015028152516496467,0,0
76808.9363120339,0.0001329964129473316,0.001504786435935529,0,0
76908.9696566283,0.0001333582477263702,0.0015068293646764595,0,0
77009.00300100955,0.00013371291897692214,0.0015088537903649257,0,0
77109.03634539079,0.00013407124502683398,0.0015107711760490889,0,0
77209.0696899852,0.00013443704015145898,0.0015128023330466056,0,0
77309.10303436645,0.00013480683967415243,0.0015148533855932147,0,0
77409.13637874769,0.00013517306537944295,0.0015168387926808333,0,0
77509.1697233421,0.00013554347768536271,0.0015188197679201457,0,0
77609.20306772334,0.00013591848485313652,0.0015208192323244527,0,0
77709.23641210458,0.00013628978984157685,0.0015227584285608003,0,0
77809.26975648584,0.0001366657803552337,0.001524747423613305,0,0
77909.30310108024,0.00013703794179601982,0.0015267268453842328,0,0
78009.3364454615,0.00013740886873614522,0.0015286452532993309,0,0
78109.36978984273,0.0001377834841138791,0.0015306784416547095,0,0
78209.40313443713,0.0001381465971415708,0.0015326097788210826,0,0
78309.43647881839,0.00013849610673662683,0.0015345096827011383,0,0
78409.46982319963,0.00013883554734079361,0.0015364332799235074,0,0
78509.50316779404,0.00013918127880582464,0.0015384420960215946,0,0
78609.53651217528,0.0001395126050612852,0.0015403734971403949,0,0
78709.56985655653,0.00013984330282321692,0.0015423225402817033,0,0
78809.60320115094,0.00014016856482182183,0.0015442947007747237,0,0
78909.63654553218,0.0001404947506868032,0.00154628011732821,0,0
79009.66988991342,0.00014081645471720986,0.0015482781840684583,0,0
79109.70323450783,0.00014114385248287006,0.0015502347804878698,0,0
79209.73657888907,0.0001414728896849772,0.0015522053251714797,0,0
79309.76992327033,0.00014179759836959886,0.0015542031278630065,0,0
79409.80326765157,0.00014213705631804918,0.0015562521509135884,0,0
79509.83661224597,0.00014247120328991466,0.001558214400903661,0,0
79609.86995662723,0.00014281117503642121,0.001560254308790153,0,0
79709.90330100847,0.00014314595744623453,0.0015621925173137556,0,0
79809.93664560288,0.00014349004046055358,0.0015641989525832258,0,0
79909.96998998412,0.00014383639081913326,0.0015662128614044354,0,0
80010.00333436536,0.00014417340264883785,0.0015681534398148665,0,0
