Frequency (Hz),Impedance (ohms),Phase (Radians),Temperature (C),Humidity (%)
49999.999999954525,9.946529712254548e-05,0.0012782046165672252,0,0
50100.03334454893,9.53489904371841e-05,0.0012725340349386402,0,0
50200.06668893018,9.567876576418336e-05,0.001275338963804562,0,0
50300.10003331142,9.601989173074651e-05,0.0012780914912908,0,0
50400.13337769267,9.63506771754624e-05,0.0012808466677653302,0,0
50500.166722287075,9.669261333656231e-05,0.0012836220849092666,0,0
50600.20006666832,9.703791869042678e-05,0.0012863699083491007,0,0
50700.233411049565,9.738689603808468e-05,0.0012890874827556267,0,0
50800.26675564398,9.773399714795952e-05,0.0012917923799503858,0,0
50900.30010002522,9.808654906021774e-05,0.0012945013925122794,0,0
51000.33344440647,9.8445677565837e-05,0.0012972428922090934,0,0
51100.36678900087,9.880419043218461e-05,0.0012999343952829444,0,0
51200.40013338212,9.916564517790881e-05,0.0013026842927974735,0,0
51300.43347776336,9.952573824205144e-05,0.0013054313164385296,0,0
51400.46682235777,9.988495412185967e-05,0.001308095915557618,0,0
51500.50016673902,0.00010025201539560466,0.0013107945163039552,0,0
51600.53351112026,0.00010061485692860346,0.0013134495451507834,0,0
51700.56685571467,0.00010098437000239395,0.0013161483301380517,0,0
51800.60020009591,0.0001013480577425138,0.0013188086576778693,0,0
51900.63354447716,0.0001017190882857897,0.001321499000432974,0,0
52000.6668888584,0.00010208863408367518,0.00132420513244999,0,0
52100.700233452815,0.00010245823684509246,0.0013268747255964666,0,0
52200.73357783406,0.00010282738980740915,0.0013295320191436266,0,0
52300.766922215305,0.00010319750779353692,0.0013321865851222438,0,0
52400.80026680971,0.00010357004074945116,0.001334859469794703,0,0
52500.83361119096,0.00010394940018422663,0.0013375562361004623,0,0
52600.8669555722,0.00010433001684759885,0.0013402264564438204,0,0
52700.900300166606,0.0001047026772985031,0.0013428810718127278,0,0
52800.933644547855,0.00010508225275336038,0.0013455684645206037,0,0
52900.966988929096,0.0001054669913888993,0.0013482761037297208,0,0
53001.00033352351,0.00010584791235659032,0.001350920344788682,0,0
53101.03367790475,0.00010623848555765537,0.0013535741616294574,0,0
53201.067022286,0.00010662312175121032,0.0013562661044207195,0,0
53301.100366880404,0.00010701217438383699,0.0013589303066952384,0,0
53401.13371126165,0.0001073950216987444,0.0013615502876914592,0,0
53501.167055642894,0.00010778503273783302,0.0013642252458426344,0,0
53601.2004002373,0.0001081766043258905,0.0013668635322377858,0,0
53701.23374461855,0.00010857871338250231,0.001369555930432813,0,0
53801.2670889998,0.00010897379125761031,0.0013722130709044227,0,0
53901.30043338104,0.00010937698369764648,0.001374912142659453,0,0
54001.333777975444,0.000109782389710422,0.0013775602600994126,0,0
54101.36712235669,0.00011018398788865792,0.001380205884626368,0,0
54201.400466737934,0.00011059791841767557,0.0013828334005006164,0,0
54301.43381133235,0.00011102675516096077,0.0013855406337783683,0,0
54401.46715571359,0.00011144951097435275,0.0013881951513882752,0,0
54501.50050009484,0.00011187819849987022,0.0013908112562792494,0,0
54601.53384468924,0.00011230467812642136,0.0013933956375320599,0,0
54701.56718907049,0.0001127141659255591,0.0013960086945709609,0,0
54801.60053345173,0.00011308965523129766,0.001398570503019475,0,0
54901.63387804614,0.00011346658815920426,0.0014012375862678937,0,0
55001.667222427386,0.00011383888837410184,0.0014038440213992003,0,0
55101.700566808635,0.00011422735859378885,0.0014065310398898583,0,0
55201.73391140304,0.0001146185515354999,0.0014091661268723086,0,0
55301.76725578428,0.0001150238337516384,0.001411835053992276,0,0
55401.80060016553,0.00011543932647934356,0.0014145321575324073,0,0
55501.83394454677,0.00011584750803661434,0.0014171654203420842,0,0
55601.867289141184,0.00011627322435662893,0.0014198614367080648,0,0
55701.900633522426,0.00011669759991863962,0.0014225390814338833,0,0
55801.933977903675,0.00011712529182836346,0.0014251325086823451,0,0
55901.96732249808,0.0001175693424115681,0.0014278614825898026,0,0
56002.00066687933,0.00011801027795173338,0.0014305081138932985,0,0
56102.03401126057,0.00011845916942929946,0.0014331293696006175,0,0
56202.067355854975,0.00011891881259319603,0.0014357542203404063,0,0
56302.100700236224,0.0001193931076957336,0.001438458801889459,0,0
56402.13404461747,0.00011987236877017929,0.0014411106576301318,0,0
56502.16738921188,0.00012036527443743239,0.0014437278324618207,0,0
56602.20073359312,0.0001208603107275746,0.0014463233526701847,0,0
56702.23407797437,0.00012137168558803165,0.001448990301803527,0,0
56802.26742256877,0.00012187965972974499,0.0014515730706613176,0,0
56902.30076695002,0.00012237366508875659,0.0014541596427733005,0,0
57002.33411133126,0.0001228499839437551,0.0014567387554194461,0,0
57102.36745571251,0.00012329123858096703,0.001459262801975682,0,0
57202.40080030692,0.00012370531149760258,0.00146182549726804,0,0
57302.434144688166,0.00012411242855734015,0.0014644355003725993,0,0
57402.46748906941,0.00012450222013048092,0.0014670365773320946,0,0
57502.50083366381,0.00012490251198063479,0.0014696506896318834,0,0
57602.53417804506,0.00012532516509202907,0.0014723762046822135,0,0
57702.56752242631,0.00012575579269143456,0.0014749934266790228,0,0
57802.600867020716,0.00012621770476720082,0.0014776729422685516,0,0
57902.63421140196,0.0001267065357047272,0.0014803665744031569,0,0
58002.667555783206,0.0001272208481707564,0.0014830261534045331,0,0
58102.70090037761,0.00012777267733749578,0.0014857197371232155,0,0
58202.73424475886,0.00012835540026550748,0.0014883772459199957,0,0
58302.7675891401,0.00012895438980298457,0.0014909763291312442,0,0
58402.800933734514,0.00012958292038583595,0.001493574330841431,0,0
58502.834278115755,0.00013020295001105664,0.0014960519924158925,0,0
58602.867622497004,0.0001308181866973408,0.0014985359666786857,0,0
58702.90096709141,0.00013139479726801163,0.0015009992345409726,0,0
58802.93431147265,0.00013190894000871743,0.0015032957162557507,0,0
58902.9676558539,0.00013235449303261452,0.0015056586199447529,0,0
59003.00100023515,0.00013273120077085025,0.0015080150665796486,0,0
59103.03434482955,0.00013307089837805063,0.001510463750097282,0,0
59203.067689210795,0.00013336582779341314,0.0015128696479825231,0,0
59303.101033592044,0.00013366465248798159,0.0015154162559612968,0,0
59403.13437818645,0.0001339464876583108,0.0015179509855575042,0,0
59503.1677225677,0.00013424325085805856,0.0015205038514643518,0,0
59603.20106694894,0.00013454909802982948,0.0015231253255291394,0,0
59703.23441154335,0.00013486741556013738,0.0015257585340301616,0,0
59803.26775592459,0.00013519717825731235,0.0015283331219606803,0,0
59903.30110030584,0.00013555160792638114,0.0015310075054486933,0,0
60003.33444490025,0.00013591743307574816,0.0015336759231333614,0,0
60103.36778928149,0.00013630053374870743,0.001536364922500218,0,0
60203.40113366274,0.00013668080163173002,0.001538949648764548,0,0
60303.43447825714,0.00013707733975688334,0.0015416083787075474,0,0
60403.46782263839,0.00013748471896861042,0.001544309742595041,0,0
60503.50116701963,0.00013790020360304647,0.0015470154568363826,0,0
60603.53451140088,0.00013833361019691866,0.001549696611620819,0,0
60703.56785599529,0.00013877316366290015,0.001552392246992803,0,0
60803.601200376535,0.00013922535823979618,0.001555069335995406,0,0
60903.63454475778,0.00013969452639319533,0.0015577461291851908,0,0
61003.66788935219,0.00014018541831509442,0.0015604469578152855,0,0
61103.70123373343,0.00014071357889898516,0.0015631789042009443,0,0
61203.73457811468,0.00014128595422867096,0.0015658561223886268,0,0
61303.767922709085,0.00014193569916046026,0.0015685636881253933,0,0
61403.801267090326,0.00014274251533828857,0.0015712813598016831,0,0
61503.834611471575,0.0001437790953483341,0.0015738109582960592,0,0
61603.86795606598,0.00014482312598375078,0.001575640813637968,0,0
61703.90130044723,0.00014492900879084,0.0015770658803758346,0,0
61803.93464482847,0.00014438647863910137,0.001579370647593349,0,0
61903.96798942288,0.00014421081253454386,0.0015821609374344165,0,0
62004.001333804124,0.0001443821776351729,0.001585134841265228,0,0
62104.03467818537,0.0001447083487176901,0.0015880036399414017,0,0
62204.06802277978,0.00014509385253049583,0.0015907635429247844,0,0
62304.10136716103,0.00014553755463168235,0.001593497514214491,0,0
62404.13471154227,0.00014597990565368884,0.0015962206753619937,0,0
62504.16805592352,0.0001464120259295874,0.001598850515013059,0,0
62604.20140051792,0.0001468691402527421,0.0016015723358651086,0,0
62704.234744899164,0.00014732734055056317,0.0016042851435181323,0,0
62804.26808928041,0.0001477884220542438,0.0016069551454376504,0,0
62904.30143387482,0.00014826245826933253,0.0016097021779410687,0,0
63004.33477825607,0.00014872520118404056,0.0016123241056079996,0,0
63104.36812263731,0.00014920169785215764,0.001614994624538796,0,0
63204.40146723172,0.00014968116486088984,0.0016176956423398193,0,0
63304.43481161296,0.00015015563137473452,0.001620344339910756,0,0
63404.46815599421,0.000150636248851799,0.0016230209386629661,0,0
63504.501500588616,0.0001511183027014385,0.0016256364770832628,0,0
63604.534844969865,0.0001516024629536892,0.0016282556515271917,0,0
63704.56818935111,0.00015209631904361464,0.0016309557232635093,0,0
63804.60153394552,0.00015259495248602257,0.0016336214588314006,0,0
63904.63487832676,0.00015308461102053018,0.001636236364747115,0,0
64004.668222708,0.0001535846238206629,0.001638823925179454,0,0
64104.70156708925,0.00015409184412718154,0.0016414436155651841,0,0
64204.734911683656,0.00015460259501697988,0.0016440270771802626,0,0
64304.768256064905,0.00015511821090646424,0.0016466706114097198,0,0
64404.801600446146,0.000155616908869908,0.0016492550708513928,0,0
64504.83494504056,0.00015609748838291682,0.0016518244787790267,0,0
64604.8682894218,0.00015655299621609978,0.0016544005716018935,0,0
64704.90163380305,0.00015697317234580422,0.0016569793734714316,0,0
64804.934978397454,0.00015738762499947534,0.001659629094338675,0,0
64904.9683227787,0.0001578037645290964,0.0016622937224164494,0,0
65005.001667159944,0.00015823156149941605,0.0016649336621334641,0,0
65105.03501175436,0.00015867451483225417,0.0016675585401302174,0,0
65205.0683561356,0.00015914475628875632,0.0016702694770673282,0,0
65305.10170051684,0.00015961878783180903,0.0016729514214997437,0,0
65405.13504511125,0.00016009393133995209,0.001675605606623266,0,0
65505.16838949249,0.00016059083952701676,0.0016783238822607905,0,0
65605.20173387374,0.00016108087966313202,0.0016809514033838946,0,0
65705.23507825499,0.00016157668935381708,0.0016836262398746509,0,0
65805.26842284939,0.00016207601866478235,0.0016862952922336472,0,0
65905.30176723065,0.0001625761557514726,0.0016889056663257805,0,0
66005.33511161189,0.00016307435510439826,0.0016916049023643213,0,0
66105.3684562063,0.0001635814935900736,0.0016942964403238027,0,0
66205.40180058754,0.00016408126618816437,0.00169687539258117,0,0
66305.43514496878,0.00016459245067205046,0.0016995632213327367,0,0
66405.4684895632,0.00016509670840620595,0.001702145346625098,0,0
66505.50183394444,0.00016560300138132323,0.00170487476833434,0,0
66605.53517832568,0.00016611362310314863,0.0017075356051623443,0,0
66705.56852292009,0.0001666240031086943,0.0017101561961452756,0,0
66805.60186730133,0.00016713121611703838,0.0017127595231102215,0,0
66905.63521168257,0.00016764683850070748,0.0017154253872131583,0,0
67005.66855627699,0.0001681537136150658,0.001718022243780504,0,0
67105.70190065823,0.00016867660546023182,0.0017207062066474158,0,0
67205.73524503948,0.0001691853391375985,0.001723334223707002,0,0
67305.76858963388,0.00016970584704219415,0.0017260115959035465,0,0
67405.80193401514,0.00017022483215112865,0.0017286583564776526,0,0
67505.83527839638,0.00017074597159346639,0.0017313161061593525,0,0
67605.86862277762,0.0001712585070545798,0.0017339413402421566,0,0
67705.90196737203,0.00017177575209012598,0.0017365676142799362,0,0
67805.93531175327,0.0001722981982204595,0.0017392579967925067,0,0
67905.96865613452,0.00017280610936769127,0.0017418674474288115,0,0
68006.00200072893,0.0001733094069197648,0.0017444623727524721,0,0
68106.03534511017,0.00017381514909208394,0.001747142587788484,0,0
68206.06868949141,0.0001743119745174662,0.001749740513700566,0,0
68306.10203408582,0.00017481304807435568,0.0017524059262410986,0,0
68406.13537846706,0.00017531884584171337,0.001755119705864405,0,0
68506.16872284832,0.00017581591563072552,0.0017577673956269578,0,0
68606.20206744272,0.00017632595427999746,0.0017604072493567517,0,0
68706.23541182397,0.00017684126110006953,0.0017630897374244817,0,0
68806.26875620522,0.0001773603070720573,0.0017657373685696785,0,0
68906.30210079963,0.0001778903824955047,0.0017684254113453795,0,0
69006.33544518087,0.00017841475996805504,0.0017710896990590376,0,0
69106.36878956211,0.0001789434329534547,0.0017737135195574165,0,0
69206.40213394335,0.00017947392788645716,0.0017764206922492348,0,0
69306.43547853777,0.00018000805905931405,0.0017790796675664963,0,0
69406.468822919,0.0001805410913765618,0.0017816806913559227,0,0
69506.50216730025,0.0001810820258377932,0.0017844265072257286,0,0
69606.53551189466,0.00018161733948051298,0.0017870649998658144,0,0
69706.5688562759,0.00018215518021161896,0.0017896969541995591,0,0
69806.60220065716,0.00018269234200037648,0.0017923320190274717,0,0
69906.63554525156,0.00018323264865232564,0.0017950258650774162,0,0
70006.66888963281,0.00018377426318080706,0.0017976725428262047,0,0
70106.70223401405,0.00018431991373528886,0.0018003182707496685,0,0
70206.73557860847,0.00018486205758464543,0.001803024750077272,0,0
70306.76892298971,0.00018540588208330766,0.0018056286318519645,0,0
70406.80226737095,0.00018595328619083634,0.0018083272476010935,0,0
70506.83561196536,0.00018649969668741402,0.0018109635805473878,0,0
70606.8689563466,0.0001870412947618167,0.0018135944442132187,0,0
70706.90230072784,0.00018759504184038007,0.001816332288249206,0,0
70806.93564510909,0.00018813667372888265,0.0018189458254267029,0,0
70906.9689897035,0.00018868908391201435,0.0018216176233410333,0,0
71007.00233408474,0.0001892425865783663,0.0018243242694126979,0,0
71107.035678466,0.00018979530816761256,0.0018270122880844433,0,0
71207.0690230604,0.00019035129750184971,0.0018296712922242254,0,0
71307.10236744165,0.00019089414956767833,0.0018322788775262174,0,0
71407.13571182289,0.00019145740388364974,0.0018349569445834238,0,0
71507.1690564173,0.00019201206419813387,0.0018376691535363853,0,0
71607.20240079855,0.00019255713323330212,0.0018402912636207303,0,0
71707.23574517979,0.00019311710420140673,0.0018430022556739072,0,0
71807.2690897742,0.00019367404137186393,0.0018456323255951746,0,0
71907.30243415544,0.00019423864698255307,0.00184834167591352,0,0
72007.33577853668,0.0001947813249021408,0.0018509116821286153,0,0
72107.3691231311,0.0001953416612367333,0.0018536024988367267,0,0
72207.40246751234,0.00019590510753383399,0.0018562878159693547,0,0
72307.43581189358,0.0001964575808524021,0.0018590100982786991,0,0
72407.46915648799,0.0001970134004688425,0.0018616416184921705,0,0
72507.50250086923,0.00019756135592246117,0.0018642791649354912,0,0
72607.53584525049,0.00019810489977394751,0.00186695579091798,0,0
72707.56918963173,0.00019865442966263613,0.0018696647349074132,0,0
72807.60253422614,0.00019918897475543746,0.0018723109734314486,0,0
72907.63587860738,0.00019972862267426226,0.0018750459964198556,0,0
73007.66922298862,0.0002002662453517055,0.0018777384220695942,0,0
73107.70256758304,0.00020081012159788744,0.0018804162652850962,0,0
73207.73591196428,0.00020137048854430566,0.0018831591780011472,0,0
73307.76925634552,0.00020193699752384093,0.001885907959172776,0,0
73407.80260093993,0.00020251218237770952,0.0018886240386427424,0,0
73507.83594532117,0.0002030997627827997,0.0018913450331985637,0,0
73607.86928970242,0.00020369124356610173,0.0018940394796933993,0,0
73707.90263429683,0.0002042852657405973,0.00189672358502867,0,0
73807.93597867807,0.00020488315600575903,0.0018994253833710334,0,0
73907.96932305933,0.00020547991779153816,0.0019021259168670829,0,0
74008.00266765372,0.00020608656122421661,0.0019048654578490776,0,0
74108.03601203498,0.00020668503656609018,0.0019075827536563779,0,0
74208.06935641622,0.00020727275464981293,0.0019102624790434495,0,0
74308.10270079746,0.0002078587414068721,0.0019130125801973018,0,0
74408.13604539188,0.00020843146738284805,0.0019156748627987457,0,0
74508.16938977312,0.0002090058561164488,0.0019184048833681634,0,0
74608.20273415436,0.00020958527402445022,0.0019211253458558592,0,0
74708.23607874877,0.00021015183674061023,0.0019237652613457539,0,0
74808.26942313001,0.000210748007819012,0.001926546060653926,0,0
74908.30276751125,0.0002113311359838784,0.0019292436391221154,0,0
75008.33611210567,0.0002119387669541348,0.0019320173523735729,0,0
75108.36945648691,0.00021253364285972733,0.0019347250583548973,0,0
75208.40280086816,0.00021313386446331564,0.0019374822062746546,0,0
75308.43614546256,0.00021373922988751154,0.001940185543677906,0,0
75408.46948984382,0.00021434222435403255,0.0019428862538484874,0,0
75508.50283422506,0.0002149590680414207,0.0019456497919043995,0,0
75608.53617881946,0.00021557497548167393,0.0019484371312657944,0,0
75708.56952320071,0.0002161865530694766,0.0019511431459351978,0,0
75808.60286758195,0.00021680528009918057,0.0019538937617472043,0,0
75908.63621217637,0.0002174317335234374,0.001956700019588403,0,0
76008.66955655761,0.0002180517126834165,0.0019593916781285624,0,0
76108.70290093885,0.00021867929172211537,0.0019621498645567975,0,0
76208.73624532009,0.00021930132462371664,0.0019648451366533516,0,0
76308.7695899145,0.00021993923562775867,0.0019676713464077747,0,0
76408.80293429575,0.00022058111824213933,0.001970467420821941,0,0
76508.836278677,0.00022122349646730086,0.001973270052465289,0,0
76608.8696232714,0.00022185808967850086,0.001975981608111886,0,0
76708.90296765266,0.00022249954502807513,0.0019787661889904755,0,0
76808.9363120339,0.00022313962267101178,0.0019815122312980176,0,0
76908.9696566283,0.00022379511444996217,0.001984271432419527,0,0
77009.00300100955,0.0002244528740145123,0.001987104426976033,0,0
77109.03634539079,0.00022511668290976206,0.001989910479248333,0,0
77209.0696899852,0.00022578222815541419,0.001992737996498163,0,0
77309.10303436645,0.0002264503163954497,0.0019955345442351446,0,0
77409.13637874769,0.00022711494841270774,0.0019982902534093593,0,0
77509.1697233421,0.00022779356555863525,0.002001109757254651,0,0
77609.20306772334,0.00022847582056197618,0.002003909241885589,0,0
77709.23641210458,0.00022915466826891058,0.002006707332459816,0,0
77809.26975648584,0.00022984112569403127,0.0020095106241808324,0,0
77909.30310108024,0.00023054377607836305,0.00201236218361696,0,0
78009.3364454615,0.00023125020691710567,0.002015219859116308,0,0
78109.36978984273,0.00023195335926065851,0.0020180218383031253,0,0
78209.40313443713,0.0002326653379477995,0.002020838414837336,0,0
78309.43647881839,0.00023338301572100277,0.0020236521311617944,0,0
78409.46982319963,0.00023412988447626826,0.0020265942837608287,0,0
78509.50316779404,0.00023486744521732127,0.0020294644104926515,0,0
78609.53651217528,0.0002356066019,0.0020322748166454073,0,0
78709.56985655653,0.0002363577867386212,0.0020351432835912877,0,0
78809.60320115094,0.0002371194428702525,0.002037983097728081,0,0
78909.63654553218,0.00023789702494958584,0.002040924096620244,0,0
79009.66988991342,0.00023869237152062602,0.002043878184274572,0,0
79109.70323450783,0.00023947716958142406,0.002046653712445735,0,0
79209.73657888907,0.00024029385146731084,0.002049617996652314,0,0
79309.76992327033,0.00024111934553082778,0.0020525681377055174,0,0
79409.80326765157,0.00024194905244746438,0.0020553905930500095,0,0
79509.83661224597,0.00024280948208629628,0.002058355047250821,0,0
79609.86995662723,0.00024368585908359148,0.0020613417394602118,0,0
79709.90330100847,0.00024457692630586343,0.002064275069912827,0,0
79809.93664560288,0.00024548805095150563,0.0020672184312615846,0,0
79909.96998998412,0.00024642645347490287,0.0020702176564237097,0,0
