Frequency (Hz),Impedance (ohms),Phase (Radians),Temperature (C),Humidity (%)
49999.999999954525,8.67744052109518e-05,0.001176522305163059,0,0
50100.03334454893,7.993240585509895e-05,0.0011696442216158145,0,0
50200.06668893018,8.022466587998814e-05,0.0011720198770549899,0,0
50300.10003331142,8.052398583089772e-05,0.0011743775413450785,0,0
50400.13337769267,8.081872244814047e-05,0.0011767323017239518,0,0
50500.166722287075,8.111175752739655e-05,0.0011790769563425744,0,0
50600.20006666832,8.140349175870183e-05,0.001181510092068932,0,0
50700.233411049565,8.172526260100199e-05,0.0011838455017225637,0,0
50800.26675564398,8.202185414516659e-05,0.001186237483688629,0,0
50900.30010002522,8.234481652291319e-05,0.0011885777945221715,0,0
51000.33344440647,8.265256526738282e-05,0.0011909403656981035,0,0
51100.36678900087,8.295636459368476e-05,0.0011933635788069262,0,0
51200.40013338212,8.32599042388118e-05,0.0011956819106986104,0,0
51300.43347776336,8.354800995677558e-05,0.0011981220097996834,0,0
51400.46682235777,8.386919278352472e-05,0.001200429943848812,0,0
51500.50016673902,8.417571054641402e-05,0.0012027897037242567,0,0
51600.53351112026,8.447984057937514e-05,0.0012051875872716473,0,0
51700.56685571467,8.481873459980849e-05,0.00120755192083425,0,0
51800.60020009591,8.514291601424204e-05,0.0012099403537026905,0,0
51900.63354447716,8.543868967020075e-05,0.0012123658889126102,0,0
52000.6668888584,8.573189655967975e-05,0.0012147208762307727,0,0
52100.700233452815,8.60750361628017e-05,0.0012170568195304027,0,0
52200.73357783406,8.634876541776437e-05,0.001219464706833293,0,0
52300.766922215305,8.667677168805667e-05,0.001221871103062196,0,0
52400.80026680971,8.69781605373355e-05,0.0012242513753234368,0,0
52500.83361119096,8.730774924906756e-05,0.001226619168627213,0,0
52600.8669555722,8.763608080815425e-05,0.0012290329043543608,0,0
52700.900300166606,8.797646982741371e-05,0.00123141507853795,0,0
52800.933644547855,8.826905667654672e-05,0.00123377781475759,0,0
52900.966988929096,8.860664946721961e-05,0.001236166978131152,0,0
53001.00033352351,8.893418780382291e-05,0.0012385667807419537,0,0
53101.03367790475,8.930238186291457e-05,0.0012409819743345472,0,0
53201.067022286,8.960707021512309e-05,0.0012433989305615089,0,0
53301.100366880404,8.994409760459601e-05,0.0012458239453348118,0,0
53401.13371126165,9.033449097469919e-05,0.001248228944763859,0,0
53501.167055642894,9.068289731854572e-05,0.0012506501809233742,0,0
53601.2004002373,9.10472814198805e-05,0.0012530625636479249,0,0
53701.23374461855,9.147458522354825e-05,0.0012554862792373645,0,0
53801.2670889998,9.182234174316156e-05,0.0012579515645125673,0,0
53901.30043338104,9.225660259910615e-05,0.0012603521983742272,0,0
54001.333777975444,9.266497447615535e-05,0.0012628044352147089,0,0
54101.36712235669,9.318707089830082e-05,0.001265233915365086,0,0
54201.400466737934,9.368440332238056e-05,0.0012676601818786433,0,0
54301.43381133235,9.426034242062335e-05,0.0012700466074685444,0,0
54401.46715571359,9.478395940847021e-05,0.0012723836937303214,0,0
54501.50050009484,9.536713019163784e-05,0.0012747020053744638,0,0
54601.53384468924,9.596780238189465e-05,0.0012768846814513405,0,0
54701.56718907049,9.65390828519716e-05,0.0012790562068063591,0,0
54801.60053345173,9.704729629252131e-05,0.0012811903080898709,0,0
54901.63387804614,9.74825636985206e-05,0.001283261589009975,0,0
55001.667222427386,9.783877501306584e-05,0.001285304044125653,0,0
55101.700566808635,9.813367245153066e-05,0.0012874000687675426,0,0
55201.73391140304,9.839657106973411e-05,0.0012895171786814017,0,0
55301.76725578428,9.859478245476762e-05,0.0012916652132447947,0,0
55401.80060016553,9.880547149172292e-05,0.0012939337587879794,0,0
55501.83394454677,9.902144025092984e-05,0.001296170334636545,0,0
55601.867289141184,9.930993755639658e-05,0.0012984069166583835,0,0
55701.900633522426,9.95234488246788e-05,0.0013007042956846104,0,0
55801.933977903675,9.972826733621065e-05,0.001303085110721068,0,0
55901.96732249808,9.995794514631013e-05,0.0013054667693337182,0,0
56002.00066687933,0.00010024670788951868,0.0013077554563770777,0,0
56102.03401126057,0.0001004820953093935,0.0013101221819317812,0,0
56202.067355854975,0.00010077382098761594,0.0013124532284546273,0,0
56302.100700236224,0.00010105241323536919,0.0013148368494024453,0,0
56402.13404461747,0.00010134395043375234,0.0013171726471361317,0,0
56502.16738921188,0.00010164601796468171,0.0013195120936573875,0,0
56602.20073359312,0.00010195557945295279,0.0013218938051602492,0,0
56702.23407797437,0.0001022661377838717,0.0013242517556672814,0,0
56802.26742256877,0.00010258554805604508,0.0013266163916833156,0,0
56902.30076695002,0.00010294846758358005,0.0013289539118648817,0,0
57002.33411133126,0.00010324661614052695,0.0013313411051569196,0,0
57102.36745571251,0.00010356312064786076,0.00133368977357516,0,0
57202.40080030692,0.00010391496020258638,0.0013360340771875789,0,0
57302.434144688166,0.00010424691533817512,0.0013384263153342132,0,0
57402.46748906941,0.00010456276709133164,0.0013407643048877545,0,0
57502.50083366381,0.00010494462465101783,0.0013430582217772605,0,0
57602.53417804506,0.00010523842741804163,0.0013455251954433355,0,0
57702.56752242631,0.00010562882192057297,0.0013478520912077593,0,0
57802.600867020716,0.00010597683977997503,0.0013501886862393021,0,0
57902.63421140196,0.00010632127806951269,0.0013525448752539737,0,0
58002.667555783206,0.00010664192281087147,0.0013549358725138737,0,0
58102.70090037761,0.00010695370773256007,0.0013572537049219412,0,0
58202.73424475886,0.0001073310811969207,0.0013596186917696966,0,0
58302.7675891401,0.00010765657531593062,0.0013620277630388973,0,0
58402.800933734514,0.00010799563521690558,0.0013643996911430962,0,0
58502.834278115755,0.00010828927430187217,0.00136681204654431,0,0
58602.867622497004,0.00010862412188138711,0.0013691873467096356,0,0
58702.90096709141,0.00010901439959601968,0.0013715139348497764,0,0
58802.93431147265,0.00010935070499445172,0.0013739219032714728,0,0
58902.9676558539,0.00010965305356463027,0.0013763415240020185,0,0
59003.00100023515,0.00011005422554137904,0.0013787508943732107,0,0
59103.03434482955,0.0001103982553302056,0.0013811333586500006,0,0
59203.067689210795,0.00011078255394794945,0.001383533957675296,0,0
59303.101033592044,0.00011117234925844532,0.001385978116224816,0,0
59403.13437818645,0.00011156577431803206,0.0013884267961788931,0,0
59503.1677225677,0.00011196724904928102,0.0013909279071665339,0,0
59603.20106694894,0.00011237163038562438,0.0013934649208026198,0,0
59703.23441154335,0.00011281314768595803,0.001396005962348857,0,0
59803.26775592459,0.00011331858756222224,0.0013985970366278031,0,0
59903.30110030584,0.00011391352239581867,0.0014011977722679738,0,0
60003.33444490025,0.00011466884997828145,0.0014038105316623282,0,0
60103.36778928149,0.00011563901951834122,0.0014063687613613896,0,0
60203.40113366274,0.00011673870559623684,0.0014087207690147085,0,0
60303.43447825714,0.00011786251769295834,0.0014106106744127531,0,0
60403.46782263839,0.00011872466666497897,0.001412245526542055,0,0
60503.50116701963,0.00011928574431031594,0.0014137964755841143,0,0
60603.53451140088,0.00011966302536237965,0.001415392440645982,0,0
60703.56785599529,0.0001197252820468359,0.0014170662315348135,0,0
60803.601200376535,0.00011961703993479191,0.0014189218390521369,0,0
60903.63454475778,0.000119499924964074,0.0014210537892551537,0,0
61003.66788935219,0.0001194564651626375,0.0014232822450169207,0,0
61103.70123373343,0.00011950471168047167,0.001425640555913915,0,0
61203.73457811468,0.00011960547163090156,0.001428019961754705,0,0
61303.767922709085,0.00011977642311607592,0.0014303974832685484,0,0
61403.801267090326,0.00011999326734147399,0.0014328403464228786,0,0
61503.834611471575,0.0001202330277473384,0.0014352299596304377,0,0
61603.86795606598,0.00012050511160880301,0.0014376395805118475,0,0
61703.90130044723,0.00012079797256439834,0.001440059499061422,0,0
61803.93464482847,0.000121093885195637,0.00144240955996808,0,0
61903.96798942288,0.00012141504722607836,0.0014447874848699434,0,0
62004.001333804124,0.00012173727228155413,0.0014471647716215055,0,0
62104.03467818537,0.000122092403913765,0.0014494716098900292,0,0
62204.06802277978,0.0001224072634593604,0.0014518762063005495,0,0
62304.10136716103,0.00012275283967909511,0.0014542393374858181,0,0
62404.13471154227,0.00012309508304024556,0.0014565579162201577,0,0
62504.16805592352,0.00012345205719877666,0.0014589457199970376,0,0
62604.20140051792,0.00012380241375909898,0.0014613074689815368,0,0
62704.234744899164,0.00012416328114135919,0.001463704568720993,0,0
62804.26808928041,0.00012451459089486838,0.0014660352143047379,0,0
62904.30143387482,0.0001248680050714633,0.0014683566423549389,0,0
63004.33477825607,0.00012522321962547036,0.0014707258827041689,0,0
63104.36812263731,0.00012557902098801738,0.0014730454170949836,0,0
63204.40146723172,0.0001259468535363509,0.0014754457058849106,0,0
63304.43481161296,0.00012631936984865017,0.001477762938830665,0,0
63404.46815599421,0.0001266711862484699,0.0014800853363775973,0,0
63504.501500588616,0.00012703279429896692,0.0014824307111774287,0,0
63604.534844969865,0.0001273896007240165,0.0014847831574937341,0,0
63704.56818935111,0.00012775550987081537,0.0014871674043185222,0,0
63804.60153394552,0.00012812729574162787,0.0014895131765281112,0,0
63904.63487832676,0.0001284879626697328,0.0014918540722631977,0,0
64004.668222708,0.00012885299437834173,0.001494210522860566,0,0
64104.70156708925,0.00012921564868025138,0.0014965132628434884,0,0
64204.734911683656,0.00012958571003744395,0.0014989006764205175,0,0
64304.768256064905,0.0001299550105897056,0.0015012855521151698,0,0
64404.801600446146,0.0001303322455864973,0.0015036279562924766,0,0
64504.83494504056,0.00013069894431421894,0.0015059367472120256,0,0
64604.8682894218,0.0001310800633863623,0.0015083610588815472,0,0
64704.90163380305,0.00013145603178379964,0.001510694396089675,0,0
64804.934978397454,0.00013183006822867216,0.0015130449971070931,0,0
64904.9683227787,0.00013220163310835112,0.0015153464075372343,0,0
65005.001667159944,0.00013257616508805314,0.00151766646096675,0,0
65105.03501175436,0.00013296454881143966,0.0015199860395557912,0,0
65205.0683561356,0.00013334750687303234,0.0015223743615133273,0,0
65305.10170051684,0.00013372652063530638,0.0015246823408876363,0,0
65405.13504511125,0.000134101039504843,0.0015270316645527643,0,0
65505.16838949249,0.0001344751831376341,0.0015294230704105383,0,0
65605.20173387374,0.00013484286997838513,0.0015317148579224841,0,0
65705.23507825499,0.0001352099960188105,0.00153406635639778,0,0
65805.26842284939,0.00013557275680044342,0.0015364170151026624,0,0
65905.30176723065,0.00013592282624745925,0.0015387389415088418,0,0
66005.33511161189,0.00013626326394333964,0.0015411080283781321,0,0
66105.3684562063,0.00013660218999814736,0.0015434641141153546,0,0
66205.40180058754,0.00013693654758659902,0.0015458183750667195,0,0
66305.43514496878,0.00013728521844103315,0.0015482381315983249,0,0
66405.4684895632,0.00013764401024394005,0.001550675633178769,0,0
66505.50183394444,0.00013801418048187732,0.001553070763381362,0,0
66605.53517832568,0.00013840733110177366,0.0015555062994442074,0,0
66705.56852292009,0.00013881761036351245,0.001557929813861717,0,0
66805.60186730133,0.00013922371832916634,0.0015603658113633825,0,0
66905.63521168257,0.00013964070635539766,0.001562724764154876,0,0
67005.66855627699,0.00014005542801173552,0.0015650988432396693,0,0
67105.70190065823,0.0001404837905584223,0.0015674787648902008,0,0
67205.73524503948,0.00014090779569052008,0.001569855873165609,0,0
67305.76858963388,0.00014132207871671502,0.0015722071903511293,0,0
67405.80193401514,0.00014174452533068788,0.0015745911837487564,0,0
67505.83527839638,0.0001421641309122892,0.0015769197697576764,0,0
67605.86862277762,0.00014258893661978458,0.00157927528585137,0,0
67705.90196737203,0.00014301320597234936,0.0015816512581631058,0,0
67805.93531175327,0.0001434390831532723,0.0015840356853977283,0,0
67905.96865613452,0.0001438610536328603,0.0015863654196244935,0,0
68006.00200072893,0.00014429501705021675,0.0015887370673524782,0,0
68106.03534511017,0.00014471715168536063,0.0015910735859242498,0,0
68206.06868949141,0.00014513866919641763,0.0015933908388198993,0,0
68306.10203408582,0.00014557229543824728,0.0015958072415960286,0,0
68406.13537846706,0.00014599438377315877,0.0015981553355604856,0,0
68506.16872284832,0.00014642052128186975,0.0016004862659981546,0,0
68606.20206744272,0.00014686282791132345,0.0016029027654850178,0,0
68706.23541182397,0.0001472889649848535,0.0016052487410492834,0,0
68806.26875620522,0.00014771297092367803,0.001607598141642207,0,0
68906.30210079963,0.00014815613807811351,0.0016099602959826196,0,0
69006.33544518087,0.0001485813349160351,0.0016122492658976408,0,0
69106.36878956211,0.00014903224189746905,0.001614640098405322,0,0
69206.40213394335,0.0001494817276466531,0.0016170808486929633,0,0
69306.43547853777,0.00014992950021265714,0.0016194263848634668,0,0
69406.468822919,0.00015039250670532465,0.001621805701438126,0,0
69506.50216730025,0.00015086256215348637,0.0016242431112884672,0,0
69606.53551189466,0.00015132715773710236,0.001626537146805811,0,0
69706.5688562759,0.00015181974171606685,0.0016289203345262978,0,0
69806.60220065716,0.0001523229420312205,0.0016312488598924917,0,0
69906.63554525156,0.00015286051153859522,0.0016336374716695295,0,0
70006.66888963281,0.00015340074616948133,0.0016359075494886124,0,0
70106.70223401405,0.00015396585718662604,0.0016381870401005942,0,0
70206.73557860847,0.00015452544383597964,0.0016403755744309311,0,0
70306.76892298971,0.00015501607569078871,0.0016425287260136755,0,0
70406.80226737095,0.00015535918503652475,0.0016445752242940988,0,0
70506.83561196536,0.0001555725311228812,0.0016467287146507698,0,0
70606.8689563466,0.00015576323784963995,0.001649062322410699,0,0
70706.90230072784,0.0001560046763642022,0.0016514362863922088,0,0
70806.93564510909,0.00015632040009823579,0.001653898290669248,0,0
70906.9689897035,0.00015668003290798932,0.0016562743877690947,0,0
71007.00233408474,0.00015708171519997904,0.0016587283820169846,0,0
71107.035678466,0.00015749117597548042,0.001661156923173661,0,0
71207.0690230604,0.00015790181085935091,0.001663534082127796,0,0
71307.10236744165,0.00015832593042006503,0.0016659206133434806,0,0
71407.13571182289,0.00015873910583503103,0.001668268502429444,0,0
71507.1690564173,0.00015915021249326682,0.0016706790110257437,0,0
71607.20240079855,0.00015957398868602214,0.0016730521249847734,0,0
71707.23574517979,0.00015999587692806065,0.001675411977982079,0,0
71807.2690897742,0.0001604155033278656,0.0016777576583000828,0,0
71907.30243415544,0.00016085264001764948,0.0016801626099762423,0,0
72007.33577853668,0.00016127923038541196,0.0016825198493135938,0,0
72107.3691231311,0.000161714535392132,0.0016848951770218985,0,0
72207.40246751234,0.0001621538057668086,0.0016872681652341885,0,0
72307.43581189358,0.00016259489054526905,0.0016896560894644763,0,0
72407.46915648799,0.0001630272974992932,0.0016919605139811725,0,0
72507.50250086923,0.0001634656241562303,0.00169434367132453,0,0
72607.53584525049,0.00016391047362405913,0.0016967452715148591,0,0
72707.56918963173,0.00016434504856289108,0.0016990655600747809,0,0
72807.60253422614,0.0001647925912015006,0.0017014685485974136,0,0
72907.63587860738,0.00016523585230368242,0.0017038553634264831,0,0
73007.66922298862,0.00016568390170697706,0.0017062213749020894,0,0
73107.70256758304,0.00016612349804032557,0.0017085209830355068,0,0
73207.73591196428,0.00016656613326622186,0.0017109164356099505,0,0
73307.76925634552,0.00016700697738351088,0.0017132853626166485,0,0
73407.80260093993,0.00016745683259576739,0.0017157009417445835,0,0
73507.83594532117,0.00016790097733609784,0.0017180270351306198,0,0
73607.86928970242,0.00016835005364373165,0.0017203443885496258,0,0
73707.90263429683,0.0001687919730997574,0.0017227103263619766,0,0
73807.93597867807,0.0001692419047204665,0.0017250916597214133,0,0
73907.96932305933,0.00016969555143224284,0.0017274983123560027,0,0
74008.00266765372,0.00017014382159539573,0.0017298512030323324,0,0
74108.03601203498,0.0001705897217068163,0.001732215372236842,0,0
74208.06935641622,0.00017103982176783358,0.0017345927658198302,0,0
74308.10270079746,0.00017149737584329564,0.0017369505412760475,0,0
74408.13604539188,0.00017194952255098186,0.001739286768080267,0,0
74508.16938977312,0.000172402724464132,0.0017416796157572194,0,0
74608.20273415436,0.00017285385442306742,0.0017439800347646306,0,0
74708.23607874877,0.00017330070053076882,0.0017463367442364466,0,0
74808.26942313001,0.0001737683331526243,0.001748801694506553,0,0
74908.30276751125,0.00017422662367999552,0.0017511296691212674,0,0
75008.33611210567,0.00017467995732841206,0.0017534545500859134,0,0
75108.36945648691,0.0001751465334317343,0.0017559120513399968,0,0
75208.40280086816,0.00017560706377544,0.0017582432761966737,0,0
75308.43614546256,0.00017607681774111603,0.0017606381114581783,0,0
75408.46948984382,0.00017653958695210625,0.0017629793339429265,0,0
75508.50283422506,0.00017701065078547216,0.0017653901475339496,0,0
75608.53617881946,0.00017747457498287514,0.0017677448135312644,0,0
75708.56952320071,0.0001779413010566364,0.0017700789993270074,0,0
75808.60286758195,0.00017840310549630252,0.0017724408286119537,0,0
75908.63621217637,0.00017887068138727,0.0017748105537334982,0,0
76008.66955655761,0.00017933984972336303,0.0017771826200733063,0,0
76108.70290093885,0.00017980677464466844,0.0017795014795827762,0,0
76208.73624532009,0.00018027697482536124,0.0017818967491027723,0,0
76308.7695899145,0.00018074969113623054,0.0017843055686588502,0,0
76408.80293429575,0.00018122196711249858,0.0017866797388798206,0,0
76508.836278677,0.0001816838097762341,0.0017890190304452162,0,0
76608.8696232714,0.00018215995596706992,0.001791412723171544,0,0
76708.90296765266,0.00018262801655097912,0.0017937660756055527,0,0
76808.9363120339,0.00018309575303052483,0.001796139530396039,0,0
76908.9696566283,0.00018357205933370316,0.0017985061241675786,0,0
77009.00300100955,0.00018403991733613432,0.0018008770524492357,0,0
77109.03634539079,0.00018451215346940544,0.0018032533202665634,0,0
77209.0696899852,0.00018498597204685333,0.0018056198438583474,0,0
77309.10303436645,0.00018545664921108102,0.0018080509227160755,0,0
77409.13637874769,0.0001859331147692409,0.0018103922007335956,0,0
77509.1697233421,0.0001864034575667742,0.0018127309742846074,0,0
77609.20306772334,0.00018688387010718378,0.0018151343832097369,0,0
77709.23641210458,0.00018737138926249824,0.0018174757534253846,0,0
77809.26975648584,0.00018783543634238474,0.0018198435903403044,0,0
77909.30310108024,0.00018829848374068417,0.0018222137660348322,0,0
78009.3364454615,0.00018877849501902774,0.0018245777217667108,0,0
78109.36978984273,0.00018925871679695129,0.0018270068698022495,0,0
78209.40313443713,0.00018973814375672834,0.0018293822820581204,0,0
78309.43647881839,0.0001902139724564443,0.0018317821358998353,0,0
78409.46982319963,0.00019068694246885727,0.001834125381872241,0,0
78509.50316779404,0.00019117462928170182,0.0018365289613437898,0,0
78609.53651217528,0.00019165792539272734,0.0018389341997760791,0,0
78709.56985655653,0.000192145025988221,0.001841262655939622,0,0
78809.60320115094,0.00019263635861353027,0.0018436563891754032,0,0
78909.63654553218,0.000193135418184211,0.0018461151300900509,0,0
79009.66988991342,0.00019363074046481097,0.001848510183511961,0,0
79109.70323450783,0.0001941326580884981,0.0018508508615361929,0,0
79209.73657888907,0.0001945993384436366,0.0018532211381961008,0,0
79309.76992327033,0.00019508850044842017,0.0018555811331136837,0,0
79409.80326765157,0.00019559476524284004,0.0018580025169965722,0,0
79509.83661224597,0.00019607941994675783,0.001860308118713748,0,0
79609.86995662723,0.0001965612998089017,0.001862699517433461,0,0
79709.90330100847,0.00019707147335329094,0.0018651343296790116,0,0
79809.93664560288,0.00019755944219412107,0.0018674393617506054,0,0
79909.96998998412,0.00019806500692897303,0.0018698569520162309,0,0
