Frequency (Hz),Impedance (ohms),Phase (Radians),Temperature (C),Humidity (%)
49999.999999954525,0.00010957354958517644,0.0012114846075194448,0,0
50100.03334454893,0.00010299064005162093,0.0012061148605681104,0,0
50200.06668893018,0.00010333589179339354,0.0012085156493603128,0,0
50300.10003331142,0.00010369090445427466,0.0012109462561549235,0,0
50400.13337769267,0.00010403439895148986,0.001213334290826038,0,0
50500.166722287075,0.00010437444674242974,0.0012157070832616828,0,0
50600.20006666832,0.0001047173243420437,0.0012181314095918725,0,0
50700.233411049565,0.00010506628121704249,0.0012205327655896334,0,0
50800.26675564398,0.00010541605581739645,0.0012229823371314368,0,0
50900.30010002522,0.00010575705723944104,0.0012253547708234163,0,0
51000.33344440647,0.00010610624595088247,0.0012277727135581648,0,0
51100.36678900087,0.00010644789880924535,0.0012301362008335895,0,0
51200.40013338212,0.00010680093256455804,0.0012325976450390257,0,0
51300.43347776336,0.00010714854157017773,0.0012349804200801069,0,0
51400.46682235777,0.00010749801454777541,0.0012374229136461478,0,0
51500.50016673902,0.00010783903818251831,0.0012397867578116135,0,0
51600.53351112026,0.00010818230824752365,0.0012421625816438839,0,0
51700.56685571467,0.00010852909067568955,0.0012445823268607873,0,0
51800.60020009591,0.00010887719036140891,0.001247003374303714,0,0
51900.63354447716,0.00010921895257880494,0.0012493955240395257,0,0
52000.6668888584,0.00010956466788877305,0.001251774667830279,0,0
52100.700233452815,0.00010991472020909579,0.0012542087881218468,0,0
52200.73357783406,0.00011026266417123049,0.001256603664561314,0,0
52300.766922215305,0.00011061448502412725,0.001259025090498,0,0
52400.80026680971,0.00011097413411552932,0.0012614244329317327,0,0
52500.83361119096,0.00011134303855331237,0.001263884320872952,0,0
52600.8669555722,0.00011170784502777439,0.0012662810923820377,0,0
52700.900300166606,0.00011208847735765742,0.0012687242795736753,0,0
52800.933644547855,0.00011246063394713494,0.001271097209083763,0,0
52900.966988929096,0.00011284142405128978,0.0012735384362646187,0,0
53001.00033352351,0.00011321761926758922,0.0012759240527540933,0,0
53101.03367790475,0.00011359381308255156,0.001278326554229976,0,0
53201.067022286,0.00011398004523278566,0.0012808044653601306,0,0
53301.100366880404,0.00011435817427853838,0.0012832036785472014,0,0
53401.13371126165,0.00011474362113533904,0.0012856972163752694,0,0
53501.167055642894,0.00011512861414640453,0.0012881402547747407,0,0
53601.2004002373,0.00011550545308756275,0.0012905486564333485,0,0
53701.23374461855,0.00011589141411328134,0.0012930227364057328,0,0
53801.2670889998,0.00011626515878444359,0.0012953583310557043,0,0
53901.30043338104,0.00011664270056184259,0.0012977816493694987,0,0
54001.333777975444,0.00011702085847938177,0.001300187122679023,0,0
54101.36712235669,0.0001174032870435636,0.0013026285098825846,0,0
54201.400466737934,0.00011777891678065893,0.0013050495993279906,0,0
54301.43381133235,0.00011815673436076766,0.0013074986226979239,0,0
54401.46715571359,0.00011853638485284717,0.0013099484042610183,0,0
54501.50050009484,0.00011891859585260253,0.001312405271428541,0,0
54601.53384468924,0.00011929790725873867,0.0013148427074034185,0,0
54701.56718907049,0.00011967338245599601,0.0013172265943726408,0,0
54801.60053345173,0.00012005692282925987,0.0013196766832986365,0,0
54901.63387804614,0.00012044316994738896,0.0013221298047201586,0,0
55001.667222427386,0.00012081460304048305,0.0013245247679255193,0,0
55101.700566808635,0.00012119946134596753,0.0013269791741398291,0,0
55201.73391140304,0.00012158153453160949,0.001329386814363315,0,0
55301.76725578428,0.0001219598525847556,0.0013318196349961526,0,0
55401.80060016553,0.0001223545273605954,0.001334321043134314,0,0
55501.83394454677,0.00012274264549639007,0.0013367927874212528,0,0
55601.867289141184,0.00012313454367194202,0.0013392201381222243,0,0
55701.900633522426,0.00012352613850864726,0.0013416789526590725,0,0
55801.933977903675,0.00012392240546344052,0.0013441061407351476,0,0
55901.96732249808,0.00012432592607089662,0.0013466012862321443,0,0
56002.00066687933,0.0001247337348656577,0.0013490689101227369,0,0
56102.03401126057,0.00012514802371137022,0.0013515012803461256,0,0
56202.067355854975,0.00012557252266768087,0.0013540086490647777,0,0
56302.100700236224,0.0001260055025571447,0.0013564918634764798,0,0
56402.13404461747,0.0001264483296834292,0.0013589397590478556,0,0
56502.16738921188,0.000126902817454055,0.001361420638586313,0,0
56602.20073359312,0.0001273853825912499,0.0013639377771534921,0,0
56702.23407797437,0.0001278775602358281,0.0013664100589654234,0,0
56802.26742256877,0.00012840210203841717,0.001368900966677406,0,0
56902.30076695002,0.00012894567415750024,0.0013713458086120876,0,0
57002.33411133126,0.00012951644268314504,0.0013737648897436897,0,0
57102.36745571251,0.00013012137589064166,0.001376195678285837,0,0
57202.40080030692,0.00013074543555607331,0.0013786082943289082,0,0
57302.434144688166,0.0001313818519472043,0.0013809386203085796,0,0
57402.46748906941,0.00013202037583163564,0.0013832337807643297,0,0
57502.50083366381,0.00013263274826495462,0.001385453921717077,0,0
57602.53417804506,0.00013320876581275764,0.0013876192794987892,0,0
57702.56752242631,0.00013372317180982695,0.001389752013812177,0,0
57802.600867020716,0.0001341731356318666,0.001391864955244942,0,0
57902.63421140196,0.000134574133047721,0.0013940085807317571,0,0
58002.667555783206,0.00013491854628219985,0.0013961513904994277,0,0
58102.70090037761,0.00013523775570814468,0.0013983469762902858,0,0
58202.73424475886,0.00013553547617234672,0.0014006319167733914,0,0
58302.7675891401,0.0001358189654452651,0.001402879450489587,0,0
58402.800933734514,0.00013609459779195403,0.0014051735570207828,0,0
58502.834278115755,0.00013637562964374084,0.0014074623038625076,0,0
58602.867622497004,0.00013666100193737913,0.0014097762182059567,0,0
58702.90096709141,0.00013696970503551795,0.0014121654516860596,0,0
58802.93431147265,0.0001372757543946408,0.001414535550585536,0,0
58902.9676558539,0.00013758689615802686,0.0014168679054289905,0,0
59003.00100023515,0.00013791491982802665,0.001419291830377371,0,0
59103.03434482955,0.00013825109034571058,0.0014216952038797373,0,0
59203.067689210795,0.00013859026414158958,0.001424039354508979,0,0
59303.101033592044,0.0001389468967317305,0.0014264944364503626,0,0
59403.13437818645,0.0001393092049170626,0.0014288596525015797,0,0
59503.1677225677,0.00013967506544950697,0.0014313141126803684,0,0
59603.20106694894,0.0001400366548570204,0.0014336487366902323,0,0
59703.23441154335,0.00014041453844913833,0.0014361057034635366,0,0
59803.26775592459,0.0001407910797382235,0.00143850258340587,0,0
59903.30110030584,0.000141177563858173,0.0014409080998598806,0,0
60003.33444490025,0.00014156337203824826,0.0014433422864884749,0,0
60103.36778928149,0.00014194516740881114,0.0014456910484637565,0,0
60203.40113366274,0.00014234281023851381,0.001448121200513532,0,0
60303.43447825714,0.0001427365639116493,0.001450501801066041,0,0
60403.46782263839,0.00014313231549393485,0.0014529183781088386,0,0
60503.50116701963,0.00014352614023429365,0.0014552668353281987,0,0
60603.53451140088,0.0001439214833596599,0.001457652807944095,0,0
60703.56785599529,0.0001443189929857029,0.0014600392857249075,0,0
60803.601200376535,0.00014472631395640975,0.0014624647329126567,0,0
60903.63454475778,0.00014512956756262052,0.0014648647752574756,0,0
61003.66788935219,0.00014553651647011766,0.001467234363173202,0,0
61103.70123373343,0.00014594445161238712,0.0014696305910900805,0,0
61203.73457811468,0.00014634394688177511,0.001472023293064924,0,0
61303.767922709085,0.00014675232619316394,0.0014744056339460456,0,0
61403.801267090326,0.0001471716031646377,0.001476858211327179,0,0
61503.834611471575,0.00014757473236933746,0.0014792164555381812,0,0
61603.86795606598,0.00014798838890410927,0.001481612870168174,0,0
61703.90130044723,0.0001483986212285821,0.0014840040205036241,0,0
61803.93464482847,0.00014881075249550962,0.0014863869282126,0,0
61903.96798942288,0.00014922563671652996,0.0014887555069993462,0,0
62004.001333804124,0.00014964094898581908,0.0014911262287432112,0,0
62104.03467818537,0.00015005229171119444,0.0014935089628868715,0,0
62204.06802277978,0.00015045834414339194,0.001495806142696061,0,0
62304.10136716103,0.0001508683132340814,0.0014982037047645423,0,0
62404.13471154227,0.00015127417215859542,0.0015005936959068314,0,0
62504.16805592352,0.0001516685194779475,0.0015030110601979548,0,0
62604.20140051792,0.00015204807334071816,0.0015053465030218105,0,0
62704.234744899164,0.0001524193875808571,0.0015077171779091505,0,0
62804.26808928041,0.00015280564060677162,0.0015101322191638118,0,0
62904.30143387482,0.0001531885071798004,0.001512546203605714,0,0
63004.33477825607,0.00015358273054240175,0.0015149392838567266,0,0
63104.36812263731,0.00015398656536822606,0.0015173452936450298,0,0
63204.40146723172,0.00015439277725588942,0.0015197792936665676,0,0
63304.43481161296,0.0001548030668175927,0.0015221749914462648,0,0
63404.46815599421,0.00015521691624559446,0.0015245874959516617,0,0
63504.501500588616,0.00015563177164956807,0.0015269790677679813,0,0
63604.534844969865,0.00015604820919322862,0.0015294054510612263,0,0
63704.56818935111,0.00015646552620729163,0.0015317522647489235,0,0
63804.60153394552,0.00015688501082024726,0.001534198585356307,0,0
63904.63487832676,0.00015729873332528922,0.0015365937186243245,0,0
64004.668222708,0.00015771260045954096,0.001538923534572717,0,0
64104.70156708925,0.00015813539639236552,0.0015413728069488938,0,0
64204.734911683656,0.00015854837344423395,0.001543720891655494,0,0
64304.768256064905,0.0001589682314081514,0.0015461416855193572,0,0
64404.801600446146,0.0001593843278363931,0.0015485597085531846,0,0
64504.83494504056,0.00015980674358126356,0.001550914296073569,0,0
64604.8682894218,0.00016022411410546563,0.0015533555221356814,0,0
64704.90163380305,0.0001606493364917878,0.0015557579906999854,0,0
64804.934978397454,0.00016106706938274055,0.0015581714875388447,0,0
64904.9683227787,0.00016148746942531162,0.001560567757769535,0,0
65005.001667159944,0.00016190434289770943,0.0015629558917549424,0,0
65105.03501175436,0.0001623277437620302,0.0015653751464354377,0,0
65205.0683561356,0.00016275683411106446,0.0015678314074329778,0,0
65305.10170051684,0.00016317533269725874,0.0015702322157282618,0,0
65405.13504511125,0.00016359706935129917,0.0015726152240728103,0,0
65505.16838949249,0.00016402128028562382,0.001575020103023817,0,0
65605.20173387374,0.00016443844584853806,0.0015773519013660678,0,0
65705.23507825499,0.0001648671708098728,0.0015797908359998067,0,0
65805.26842284939,0.00016529835479963442,0.0015822279488946378,0,0
65905.30176723065,0.0001657314102504534,0.001584683296539935,0,0
66005.33511161189,0.00016615715206549735,0.0015870449121681877,0,0
66105.3684562063,0.00016659326342060383,0.0015894853585531627,0,0
66205.40180058754,0.00016702647366990603,0.0015918725273402765,0,0
66305.43514496878,0.00016745379266111196,0.0015942503481045926,0,0
66405.4684895632,0.0001678931214985048,0.0015966587868370512,0,0
66505.50183394444,0.00016833751096306305,0.001599119956014345,0,0
66605.53517832568,0.00016877696314206888,0.0016015684785089036,0,0
66705.56852292009,0.0001692243720898351,0.0016040379629180814,0,0
66805.60186730133,0.00016966473860571455,0.001606407430228497,0,0
66905.63521168257,0.00017011387365386868,0.0016088754699234487,0,0
67005.66855627699,0.000170558921157041,0.0016112802987602324,0,0
67105.70190065823,0.00017100487908045913,0.0016136428684773506,0,0
67205.73524503948,0.00017147021326451868,0.0016161494404181738,0,0
67305.76858963388,0.0001719256029933124,0.0016185575680236904,0,0
67405.80193401514,0.0001723832728672526,0.0016209753959315909,0,0
67505.83527839638,0.00017284676186327257,0.0016233933102016793,0,0
67605.86862277762,0.00017330336875186466,0.0016258337710208376,0,0
67705.90196737203,0.00017376732369520567,0.0016282414297648267,0,0
67805.93531175327,0.00017422394708645794,0.0016306359418279107,0,0
67905.96865613452,0.0001746772191937327,0.0016330388157960254,0,0
68006.00200072893,0.00017514656161790563,0.0016355082673209945,0,0
68106.03534511017,0.0001756142169444327,0.0016379250126987261,0,0
68206.06868949141,0.00017608181130321672,0.0016403678462614426,0,0
68306.10203408582,0.0001765510846383233,0.0016428083270448644,0,0
68406.13537846706,0.00017701392493706423,0.0016452007558869287,0,0
68506.16872284832,0.00017748505921772598,0.001647670990452107,0,0
68606.20206744272,0.00017795376227432264,0.0016500720223174507,0,0
68706.23541182397,0.00017842426737036649,0.0016524946949911796,0,0
68806.26875620522,0.00017889993286220819,0.001654964619247775,0,0
68906.30210079963,0.0001793794813496604,0.0016574020483083405,0,0
69006.33544518087,0.0001798562224573587,0.0016598425720494498,0,0
69106.36878956211,0.00018033269268413334,0.0016622501390058592,0,0
69206.40213394335,0.00018081205804734463,0.0016646926163319908,0,0
69306.43547853777,0.00018129538482630406,0.0016671071619040253,0,0
69406.468822919,0.00018177726586740482,0.0016695051553592146,0,0
69506.50216730025,0.00018227696316825963,0.001671984308600905,0,0
69606.53551189466,0.00018276702490056698,0.0016744027616084711,0,0
69706.5688562759,0.00018326290074079479,0.001676825610143848,0,0
69806.60220065716,0.00018376562021736804,0.0016792128128497509,0,0
69906.63554525156,0.00018427194528228372,0.0016816548817969671,0,0
70006.66888963281,0.00018478748002080216,0.001684112291652123,0,0
70106.70223401405,0.00018529804340239154,0.0016864871438630764,0,0
70206.73557860847,0.00018580756777805585,0.0016888708892397752,0,0
70306.76892298971,0.000186312014259591,0.0016912276358347078,0,0
70406.80226737095,0.0001867994314778955,0.00169361847107048,0,0
70506.83561196536,0.0001872784049504826,0.001696013773239304,0,0
70606.8689563466,0.00018775816520200258,0.0016984207900833201,0,0
70706.90230072784,0.00018821752302889693,0.001700814109150091,0,0
70806.93564510909,0.00018869293500325732,0.0017032840833601114,0,0
70906.9689897035,0.0001891591947212023,0.0017057215103802536,0,0
71007.00233408474,0.00018962890649965248,0.0017081289256617655,0,0
71107.035678466,0.00019010962839685792,0.0017105433995357015,0,0
71207.0690230604,0.0001906004652156918,0.0017130164270163439,0,0
71307.10236744165,0.00019109481661875075,0.0017154743559868366,0,0
71407.13571182289,0.00019160004741866795,0.0017179334349781644,0,0
71507.1690564173,0.00019210306469100605,0.0017203452173611446,0,0
71607.20240079855,0.00019263125853817816,0.0017228869620289533,0,0
71707.23574517979,0.00019314994591840395,0.0017253519743068576,0,0
71807.2690897742,0.00019367223745347551,0.0017277655738005017,0,0
71907.30243415544,0.00019420681597719856,0.0017302321026357909,0,0
72007.33577853668,0.000194739885548254,0.0017326406033473089,0,0
72107.3691231311,0.00019529037126790025,0.0017350916472475856,0,0
72207.40246751234,0.00019584636925306753,0.0017375735474733172,0,0
72307.43581189358,0.00019640568960663406,0.00173999896981265,0,0
72407.46915648799,0.00019697478597173698,0.0017424827490966294,0,0
72507.50250086923,0.00019753370959773987,0.0017448331830422325,0,0
72607.53584525049,0.00019810832775855086,0.0017473291314048,0,0
72707.56918963173,0.00019867274101930177,0.0017497220835265264,0,0
72807.60253422614,0.00019923066554395879,0.0017521360877096278,0,0
72907.63587860738,0.00019975676745691466,0.0017544640112685957,0,0
73007.66922298862,0.00020026564818846125,0.001756891337868348,0,0
73107.70256758304,0.00020074238520436475,0.001759275367876591,0,0
73207.73591196428,0.00020119933705657882,0.0017617696946670227,0,0
73307.76925634552,0.00020167938736982403,0.0017643315878375857,0,0
73407.80260093993,0.00020218624223869309,0.0017668995786883994,0,0
73507.83594532117,0.00020277072614998575,0.0017696115030453982,0,0
73607.86928970242,0.0002034607296476772,0.0017723584746501826,0,0
73707.90263429683,0.00020425609194749464,0.0017750968906622953,0,0
73807.93597867807,0.00020517982580789477,0.0017778421584177082,0,0
73907.96932305933,0.0002062437818152933,0.0017805531717974838,0,0
74008.00266765372,0.00020747127076955636,0.001783234693354535,0,0
74108.03601203498,0.00020889809994609657,0.0017858257185038896,0,0
74208.06935641622,0.0002105349416107383,0.001788126185284716,0,0
74308.10270079746,0.0002123722325978068,0.0017901563613428447,0,0
74408.13604539188,0.00021428831901462898,0.0017915762164916337,0,0
74508.16938977312,0.00021603720922999114,0.0017924790445969572,0,0
74608.20273415436,0.000217153404324721,0.0017926655312955858,0,0
74708.23607874877,0.0002173054656277951,0.001792714638274767,0,0
74808.26942313001,0.00021655948400991555,0.0017931429566629133,0,0
74908.30276751125,0.00021536315216497736,0.0017943897361109241,0,0
75008.33611210567,0.00021416926006981727,0.0017963254392696021,0,0
75108.36945648691,0.00021323353226375337,0.0017987516875780935,0,0
75208.40280086816,0.00021259237802511888,0.0018014517643744148,0,0
75308.43614546256,0.0002122145338702396,0.0018042089788405779,0,0
75408.46948984382,0.00021205962528899073,0.0018070703495091528,0,0
75508.50283422506,0.00021205870956378072,0.001809896535756967,0,0
75608.53617881946,0.00021218447065505155,0.0018127045464649135,0,0
75708.56952320071,0.00021239636689601683,0.0018154666355601652,0,0
75808.60286758195,0.00021266807336262208,0.0018181882709067956,0,0
75908.63621217637,0.00021299517612287518,0.0018209020080110167,0,0
76008.66955655761,0.00021334374544332066,0.0018235422759515598,0,0
76108.70290093885,0.00021373994825820352,0.0018261811234029448,0,0
76208.73624532009,0.00021414954789676839,0.0018288271334303454,0,0
76308.7695899145,0.00021457983094652112,0.0018313959398039246,0,0
76408.80293429575,0.00021503000617476754,0.0018340353237169828,0,0
76508.836278677,0.00021547372413063272,0.0018365390608903963,0,0
76608.8696232714,0.00021593894256274283,0.001839081162052067,0,0
76708.90296765266,0.00021641431249630615,0.0018416560736757171,0,0
76808.9363120339,0.00021688759349675895,0.0018441834883812412,0,0
76908.9696566283,0.0002173713987112246,0.0018467245303674486,0,0
77009.00300100955,0.00021786701045551827,0.0018493212733608024,0,0
77109.03634539079,0.00021834770000701712,0.0018517384121892403,0,0
77209.0696899852,0.00021884939159188331,0.0018543026782374746,0,0
77309.10303436645,0.000219333745905373,0.0018567146999035537,0,0
77409.13637874769,0.00021983988166935349,0.0018592849915966064,0,0
77509.1697233421,0.00022034433787198053,0.001861743554586603,0,0
77609.20306772334,0.00022084810782792625,0.0018642273552608164,0,0
77709.23641210458,0.00022135243536755428,0.0018667562776162024,0,0
77809.26975648584,0.00022185260026476447,0.0018691905616308826,0,0
77909.30310108024,0.00022236968103664387,0.0018717704940373326,0,0
78009.3364454615,0.00022287734367713234,0.0018742229988568475,0,0
78109.36978984273,0.00022337711733375266,0.0018766341402369029,0,0
78209.40313443713,0.00022389105972362442,0.0018791261101322964,0,0
78309.43647881839,0.00022439819019950868,0.0018815907640360291,0,0
78409.46982319963,0.00022491350190715438,0.0018840817214995837,0,0
78509.50316779404,0.0002254286933741928,0.0018865504805395952,0,0
78609.53651217528,0.00022593252687954418,0.0018889782657063843,0,0
78709.56985655653,0.00022645318517744323,0.0018914746287203561,0,0
78809.60320115094,0.0002269580490877395,0.0018938729873600238,0,0
78909.63654553218,0.00022747767405417084,0.001896356309943591,0,0
79009.66988991342,0.0002279922452030592,0.001898779931356062,0,0
79109.70323450783,0.00022851610763427707,0.0019012681010681617,0,0
79209.73657888907,0.00022903450524768796,0.0019037145264549154,0,0
79309.76992327033,0.00022956001149795243,0.0019061683633137638,0,0
79409.80326765157,0.0002300831183683057,0.0019086640511487435,0,0
79509.83661224597,0.00023060450511105983,0.0019111288742913006,0,0
79609.86995662723,0.0002311271117629154,0.0019135697180997183,0,0
79709.90330100847,0.00023165371037118303,0.0019160359935790083,0,0
79809.93664560288,0.0002321712527002571,0.0019184587964546072,0,0
