Frequency (Hz),Impedance (ohms),Phase (Radians),Temperature (C),Humidity (%)
49999.999999954525,0.0001028389940137201,0.0012871110431894662,0,0
50100.03334454893,9.723002910329909e-05,0.0012785762076473921,0,0
50200.06668893018,9.75875776855062e-05,0.0012813644266817263,0,0
50300.10003331142,9.796602237764983e-05,0.0012840709320346504,0,0
50400.13337769267,9.836182177235278e-05,0.0012868444504523548,0,0
50500.166722287075,9.871431986929791e-05,0.0012895836636049472,0,0
50600.20006666832,9.91305941578712e-05,0.001292275229472796,0,0
50700.233411049565,9.949069542818365e-05,0.001295018405939237,0,0
50800.26675564398,9.980485799674212e-05,0.0012977579155649458,0,0
50900.30010002522,0.0001001688561432922,0.0013004731556976274,0,0
51000.33344440647,0.00010059119695426166,0.001303185371271359,0,0
51100.36678900087,0.0001010018902775839,0.0013058739355251005,0,0
51200.40013338212,0.00010126467122384194,0.0013086315134124386,0,0
51300.43347776336,0.00010156836230438003,0.0013112805538538868,0,0
51400.46682235777,0.00010198306403887731,0.001314045782076291,0,0
51500.50016673902,0.0001024383057042273,0.0013167174183298287,0,0
51600.53351112026,0.00010289657491731602,0.0013193579676654293,0,0
51700.56685571467,0.00010344757791851814,0.0013220201437830444,0,0
51800.60020009591,0.00010373359069163343,0.0013247740310212888,0,0
51900.63354447716,0.00010404183101598705,0.0013274231044290553,0,0
52000.6668888584,0.00010433352363688637,0.00133013926333595,0,0
52100.700233452815,0.00010462006827559014,0.0013328297159961163,0,0
52200.73357783406,0.00010496397848889716,0.0013355144299366031,0,0
52300.766922215305,0.000105315372588804,0.0013381867528542129,0,0
52400.80026680971,0.00010580475372836,0.0013408606052943118,0,0
52500.83361119096,0.00010618955786272318,0.0013435679554386513,0,0
52600.8669555722,0.0001066682369717265,0.0013462382620744047,0,0
52700.900300166606,0.00010707765002102559,0.0013488988129769545,0,0
52800.933644547855,0.00010760194768236492,0.00135153806469288,0,0
52900.966988929096,0.00010804728718162766,0.001354217194286569,0,0
53001.00033352351,0.00010832906767038756,0.0013569266380654772,0,0
53101.03367790475,0.00010865437364141786,0.0013595918981202798,0,0
53201.067022286,0.00010898899428301181,0.0013622639531327542,0,0
53301.100366880404,0.00010944573158695853,0.0013648906658020447,0,0
53401.13371126165,0.00011009576830682727,0.0013675337992265126,0,0
53501.167055642894,0.0001104151754362559,0.0013701762752589797,0,0
53601.2004002373,0.00011069594433274768,0.0013729036647352085,0,0
53701.23374461855,0.00011115942757425351,0.0013755495028312742,0,0
53801.2670889998,0.00011152016678069828,0.0013781971914805576,0,0
53901.30043338104,0.00011188956354556263,0.0013809071205771247,0,0
54001.333777975444,0.00011233274134140167,0.0013835122092020718,0,0
54101.36712235669,0.00011268883723243592,0.0013861658392832039,0,0
54201.400466737934,0.00011301755251703179,0.0013888236583988304,0,0
54301.43381133235,0.00011332292422361106,0.0013915302428301377,0,0
54401.46715571359,0.00011369992593540998,0.001394142056086572,0,0
54501.50050009484,0.00011409363420536046,0.00139682068985189,0,0
54601.53384468924,0.00011459517520054444,0.0013994676047851926,0,0
54701.56718907049,0.00011523880567298725,0.0014021019909786676,0,0
54801.60053345173,0.00011578453106283856,0.0014047235898288284,0,0
54901.63387804614,0.00011615059642930089,0.0014074175377494112,0,0
55001.667222427386,0.00011657496630111662,0.001410049256968488,0,0
55101.700566808635,0.00011709231575748805,0.0014127247951822156,0,0
55201.73391140304,0.0001173464223826526,0.001415428786129265,0,0
55301.76725578428,0.00011772445538002186,0.0014180771806938989,0,0
55401.80060016553,0.00011826491526558224,0.0014207514135388586,0,0
55501.83394454677,0.00011851343772048458,0.0014233982141667095,0,0
55601.867289141184,0.00011895486884063964,0.0014260469674147941,0,0
55701.900633522426,0.00011947589371888014,0.0014286398755718678,0,0
55801.933977903675,0.00011996022358423783,0.001431295450156701,0,0
55901.96732249808,0.00012041692529025371,0.0014338986018115024,0,0
56002.00066687933,0.0001208735018010325,0.001436536345337011,0,0
56102.03401126057,0.00012126438368012078,0.0014391182524210698,0,0
56202.067355854975,0.00012175884967327839,0.0014417844341581333,0,0
56302.100700236224,0.00012201534177719973,0.0014444299697193423,0,0
56402.13404461747,0.00012244928704901984,0.0014470542777886043,0,0
56502.16738921188,0.00012282411786180463,0.0014497560693459784,0,0
56602.20073359312,0.000123486263825631,0.0014523271085647872,0,0
56702.23407797437,0.00012366944931139798,0.001454989257117527,0,0
56802.26742256877,0.00012409526341983524,0.0014576686809687415,0,0
56902.30076695002,0.0001245799661564978,0.0014603262645071493,0,0
57002.33411133126,0.00012594796644159605,0.0014628424770847344,0,0
57102.36745571251,0.00012594785985034054,0.0014656135350220403,0,0
57202.40080030692,0.00012667759544978852,0.001468260141960198,0,0
57302.434144688166,0.00012666092137008741,0.0014710220583474952,0,0
57402.46748906941,0.00012699476663092878,0.0014738293641103526,0,0
57502.50083366381,0.00012759803829533842,0.0014764751377284904,0,0
57602.53417804506,0.00012803844887670067,0.0014791703670883683,0,0
57702.56752242631,0.00012863151860315395,0.001481960367163305,0,0
57802.600867020716,0.0001294557900828494,0.0014845936832497929,0,0
57902.63421140196,0.00012980917014906567,0.0014873693629076858,0,0
58002.667555783206,0.00013033921970388498,0.0014900484463222542,0,0
58102.70090037761,0.0001310487372968586,0.001492654487632677,0,0
58202.73424475886,0.00013172369678190674,0.0014951885564471255,0,0
58302.7675891401,0.00013197053055992206,0.001497810090988367,0,0
58402.800933734514,0.00013227418375714553,0.0015003678332054975,0,0
58502.834278115755,0.00013264664160399166,0.0015029576174995928,0,0
58602.867622497004,0.00013349563395984607,0.0015055587770969215,0,0
58702.90096709141,0.00013402133976379727,0.001508278973854702,0,0
58802.93431147265,0.0001342876590615871,0.0015110128749448103,0,0
58902.9676558539,0.00013485609665114234,0.0015137114881143294,0,0
59003.00100023515,0.0001356810540189739,0.001516401018809641,0,0
59103.03434482955,0.00013642277450808145,0.001519002701735213,0,0
59203.067689210795,0.0001371063888665654,0.0015215186622240244,0,0
59303.101033592044,0.00013810964702101755,0.0015237689761779622,0,0
59403.13437818645,0.00013904195790332487,0.0015259221236511213,0,0
59503.1677225677,0.00013961279714928,0.0015280155958430235,0,0
59603.20106694894,0.00014016380633949282,0.0015300732073786963,0,0
59703.23441154335,0.00014004550149399503,0.001532309363287316,0,0
59803.26775592459,0.00014006955004857585,0.001534681622084489,0,0
59903.30110030584,0.0001400684446549902,0.0015372593157290287,0,0
60003.33444490025,0.00014035737298109308,0.0015398021250380622,0,0
60103.36778928149,0.0001407248983061117,0.00154243219704765,0,0
60203.40113366274,0.00014105222954657773,0.0015451578699509406,0,0
60303.43447825714,0.00014126063705894524,0.001547824599653232,0,0
60403.46782263839,0.00014119314900726235,0.001550652883476876,0,0
60503.50116701963,0.0001415443985388573,0.0015533726677769474,0,0
60603.53451140088,0.0001421474286169941,0.0015560667419314532,0,0
60703.56785599529,0.0001428817707501751,0.0015588255660364911,0,0
60803.601200376535,0.0001436355032798485,0.0015614900832232037,0,0
60903.63454475778,0.0001444249819153387,0.0015640999736022368,0,0
61003.66788935219,0.00014510890542602882,0.0015662108728701485,0,0
61103.70123373343,0.00014510774325092097,0.0015680044559185304,0,0
61203.73457811468,0.00014463977588192995,0.0015705081588105038,0,0
61303.767922709085,0.00014451142973905676,0.0015734172455429249,0,0
61403.801267090326,0.00014492436924015445,0.0015762939991061807,0,0
61503.834611471575,0.00014549455068150788,0.0015790450684539587,0,0
61603.86795606598,0.0001460093776264187,0.0015818460774324286,0,0
61703.90130044723,0.00014632816593209186,0.0015846753956145947,0,0
61803.93464482847,0.00014677648064380573,0.0015873428257418417,0,0
61903.96798942288,0.0001471876681040416,0.0015900027998737496,0,0
62004.001333804124,0.00014762960656296474,0.0015927065677242387,0,0
62104.03467818537,0.00014798615446869021,0.001595450672901522,0,0
62204.06802277978,0.00014846971488160812,0.001598136706806442,0,0
62304.10136716103,0.0001489816016235466,0.0016007672558905697,0,0
62404.13471154227,0.00014934066747338633,0.0016034571512065403,0,0
62504.16805592352,0.00014963239869126947,0.0016061302014317871,0,0
62604.20140051792,0.00015008483482501574,0.0016088294372308411,0,0
62704.234744899164,0.00015069611789459488,0.0016114746953403058,0,0
62804.26808928041,0.00015112354856853548,0.0016141583009387887,0,0
62904.30143387482,0.0001516676248200069,0.0016168447773460032,0,0
63004.33477825607,0.00015211041410882135,0.0016194577896878615,0,0
63104.36812263731,0.0001526387356569417,0.0016221132150097664,0,0
63204.40146723172,0.00015327885557810906,0.0016247953606141115,0,0
63304.43481161296,0.0001537823902496934,0.0016274250537631843,0,0
63404.46815599421,0.0001540370260335668,0.0016301347367855047,0,0
63504.501500588616,0.00015455287304035054,0.0016327926727554023,0,0
63604.534844969865,0.00015519827991420363,0.0016354404153267408,0,0
63704.56818935111,0.00015600017710733983,0.0016380470444878113,0,0
63804.60153394552,0.00015673290881476246,0.001640664359799439,0,0
63904.63487832676,0.00015737060443849328,0.0016432942991643964,0,0
64004.668222708,0.00015838421718290336,0.0016458645067395897,0,0
64104.70156708925,0.00015910763234355807,0.0016484559527820458,0,0
64204.734911683656,0.00015928423127743854,0.0016512205416553483,0,0
64304.768256064905,0.00015974494360269334,0.0016539256703704283,0,0
64404.801600446146,0.00015980418610548453,0.0016566680694334835,0,0
64504.83494504056,0.00016019459590024373,0.0016593023145455676,0,0
64604.8682894218,0.000160496483752114,0.0016619896552110135,0,0
64704.90163380305,0.00016088819669389274,0.0016647027614377907,0,0
64804.934978397454,0.0001613826272581284,0.0016673211469405674,0,0
64904.9683227787,0.000161870922936203,0.0016700169056206363,0,0
65005.001667159944,0.0001625558092872732,0.0016726103728222585,0,0
65105.03501175436,0.00016319100908037225,0.0016752472777022557,0,0
65205.0683561356,0.0001637189695597578,0.0016778269879783015,0,0
65305.10170051684,0.0001642262010188122,0.0016803870754028536,0,0
65405.13504511125,0.00016488427562966893,0.0016829401568316514,0,0
65505.16838949249,0.00016546397661255328,0.0016855022340105023,0,0
65605.20173387374,0.0001660136840844536,0.0016880844160392253,0,0
65705.23507825499,0.00016647239286441887,0.0016905351002721044,0,0
65805.26842284939,0.00016706743073187258,0.001693065337987628,0,0
65905.30176723065,0.00016805751384339684,0.001695588484676069,0,0
66005.33511161189,0.00016776671647710114,0.001698375212821847,0,0
66105.3684562063,0.00016772460602233223,0.0017011516654711028,0,0
66205.40180058754,0.00016815578693024698,0.001703881514410255,0,0
66305.43514496878,0.00016855214046345045,0.0017065891335818935,0,0
66405.4684895632,0.0001690520836538051,0.0017092617689285665,0,0
66505.50183394444,0.00016969387286373125,0.0017119790009757134,0,0
66605.53517832568,0.00017048622917778972,0.0017145243710148027,0,0
66705.56852292009,0.00017103119198914288,0.0017172049292087095,0,0
66805.60186730133,0.00017137304189137584,0.0017199827248438764,0,0
66905.63521168257,0.00017197881115519476,0.0017226241974724547,0,0
67005.66855627699,0.000172234320737066,0.0017253546307595957,0,0
67105.70190065823,0.00017283705406907228,0.0017279917249651607,0,0
67205.73524503948,0.00017345878181515198,0.0017306429589459757,0,0
67305.76858963388,0.000173865896085216,0.0017333369239515126,0,0
67405.80193401514,0.00017453026053946226,0.001735978293570182,0,0
67505.83527839638,0.00017568939479168484,0.0017384902716190832,0,0
67605.86862277762,0.0001765962722336581,0.0017410927646823997,0,0
67705.90196737203,0.00017598573487316078,0.0017439928030332015,0,0
67805.93531175327,0.00017626558489006557,0.0017467599573202284,0,0
67905.96865613452,0.00017688030237616632,0.0017493270459590187,0,0
68006.00200072893,0.0001774739670584842,0.0017520141001817198,0,0
68106.03534511017,0.0001780243477626949,0.0017546945097312576,0,0
68206.06868949141,0.00017839948165431277,0.0017573997593383476,0,0
68306.10203408582,0.00017877196857958783,0.001760096202118616,0,0
68406.13537846706,0.00017904935091713568,0.001762779381148171,0,0
68506.16872284832,0.00017963160607157203,0.0017654861353383297,0,0
68606.20206744272,0.00018035917121266072,0.0017681535686391123,0,0
68706.23541182397,0.00018090677985861274,0.0017708615331281283,0,0
68806.26875620522,0.0001813488349049504,0.0017734767826328133,0,0
68906.30210079963,0.00018186206815119598,0.0017761312426346281,0,0
69006.33544518087,0.0001823244471110169,0.001778890068182742,0,0
69106.36878956211,0.0001830062272622512,0.001781508833809838,0,0
69206.40213394335,0.0001836226280005317,0.0017840811642218777,0,0
69306.43547853777,0.00018431493347699537,0.001786689362687537,0,0
69406.468822919,0.00018501977591929976,0.001789291001809693,0,0
69506.50216730025,0.0001854859017746556,0.0017919340624446885,0,0
69606.53551189466,0.0001859937362814752,0.0017946847072557515,0,0
69706.5688562759,0.0001863401047452207,0.0017973199992836516,0,0
69806.60220065716,0.00018674744017816423,0.0018000626871247853,0,0
69906.63554525156,0.00018724042243040546,0.0018028370903753323,0,0
70006.66888963281,0.00018769943109993027,0.0018055350255091298,0,0
70106.70223401405,0.000188292461611525,0.0018081835457486575,0,0
70206.73557860847,0.00018886188688371848,0.0018108461372792432,0,0
70306.76892298971,0.00018934236892647935,0.001813497951729053,0,0
70406.80226737095,0.00018988852480257017,0.0018161716995403162,0,0
70506.83561196536,0.00019058673754576423,0.0018188751584719272,0,0
70606.8689563466,0.0001912809507935168,0.0018215382382234298,0,0
70706.90230072784,0.00019175714508894333,0.0018241891762709992,0,0
70806.93564510909,0.00019231041094095843,0.001826865965585211,0,0
70906.9689897035,0.00019282316015661308,0.001829563240889721,0,0
71007.00233408474,0.00019329412279263963,0.0018322622026507372,0,0
71107.035678466,0.0001937394956646632,0.0018350497602847538,0,0
71207.0690230604,0.00019414365394823793,0.0018377058877230722,0,0
71307.10236744165,0.0001946979750761944,0.001840436708937681,0,0
71407.13571182289,0.000195347159221343,0.0018430186060940051,0,0
71507.1690564173,0.00019593205011158226,0.0018457303816615742,0,0
71607.20240079855,0.00019654046895488186,0.0018484399073625945,0,0
71707.23574517979,0.00019711428469898753,0.0018510864234820657,0,0
71807.2690897742,0.0001977348019265665,0.0018538189512830327,0,0
71907.30243415544,0.0001984317255573237,0.0018564412780970232,0,0
72007.33577853668,0.00019902690140311002,0.0018591606635675248,0,0
72107.3691231311,0.00019969108452926274,0.0018618516737956361,0,0
72207.40246751234,0.00020038223013516115,0.001864464963503708,0,0
72307.43581189358,0.00020085905586432427,0.0018672277837452206,0,0
72407.46915648799,0.00020136448425414033,0.0018699466894568832,0,0
72507.50250086923,0.00020204609100222558,0.0018725906497961385,0,0
72607.53584525049,0.00020277985174062586,0.0018752317212947106,0,0
72707.56918963173,0.00020364672456525364,0.0018778658000869663,0,0
72807.60253422614,0.00020424453821395197,0.0018804949458045238,0,0
72907.63587860738,0.00020460794029957913,0.0018832202529280415,0,0
73007.66922298862,0.00020500611356068932,0.0018859663577558828,0,0
73107.70256758304,0.00020558956091634416,0.0018886362960199368,0,0
73207.73591196428,0.00020611405987688332,0.001891309175462699,0,0
73307.76925634552,0.0002067328170278081,0.0018940055978702085,0,0
73407.80260093993,0.0002072153561294188,0.0018967037200031353,0,0
73507.83594532117,0.0002076640263024664,0.0018993978755090916,0,0
73607.86928970242,0.00020813761118574205,0.0019020754005704384,0,0
73707.90263429683,0.00020866479476466324,0.001904782137724909,0,0
73807.93597867807,0.00020931814994383028,0.001907556644460232,0,0
73907.96932305933,0.0002097877214017716,0.0019103307698519084,0,0
74008.00266765372,0.0002103291119044856,0.0019130894551274106,0,0
74108.03601203498,0.0002107666347680131,0.0019158381308107893,0,0
74208.06935641622,0.00021133661169147054,0.0019185869085625534,0,0
74308.10270079746,0.00021189859430087083,0.0019213551182404747,0,0
74408.13604539188,0.00021249276892483092,0.0019241171139579578,0,0
74508.16938977312,0.0002131758280397561,0.0019269383031923315,0,0
74608.20273415436,0.00021384742371979764,0.0019295898669533357,0,0
74708.23607874877,0.00021446186256014396,0.0019323272845018207,0,0
74808.26942313001,0.00021499405834551796,0.0019350764670429423,0,0
74908.30276751125,0.0002155796547008736,0.0019377955999135377,0,0
75008.33611210567,0.00021617029962286356,0.0019405614682069237,0,0
75108.36945648691,0.0002167653445161617,0.0019433121597882959,0,0
75208.40280086816,0.00021747196023013228,0.0019460419635493802,0,0
75308.43614546256,0.00021819364279758286,0.0019487010181167702,0,0
75408.46948984382,0.00021902214944983877,0.0019515100885934213,0,0
75508.50283422506,0.00021963741946509193,0.0019542546852883225,0,0
75608.53617881946,0.00022028701796194449,0.0019569799325587344,0,0
75708.56952320071,0.00022117441938627626,0.00195969119118824,0,0
75808.60286758195,0.00022166858419459546,0.0019625114893029125,0,0
75908.63621217637,0.00022213649590764996,0.0019653469052214375,0,0
76008.66955655761,0.00022277431874240844,0.001968091487009341,0,0
76108.70290093885,0.00022326603947514233,0.0019708805810329465,0,0
76208.73624532009,0.00022404512611427994,0.001973669457764456,0,0
76308.7695899145,0.000224708332720594,0.0019764141857245457,0,0
76408.80293429575,0.00022538605683708788,0.0019792493623613404,0,0
76508.836278677,0.0002261552127674744,0.0019820117749013424,0,0
76608.8696232714,0.00022663719422039939,0.001984864723180221,0,0
76708.90296765266,0.00022723874963141434,0.0019876008902543077,0,0
76808.9363120339,0.00022806220391878283,0.0019904066708676957,0,0
76908.9696566283,0.0002286754102776802,0.0019932304224024714,0,0
77009.00300100955,0.00022929274816630116,0.0019960343990023605,0,0
77109.03634539079,0.00023003672773602284,0.0019988247153627744,0,0
77209.0696899852,0.00023069524025651078,0.002001661378014237,0,0
77309.10303436645,0.00023125531093098135,0.002004482741286741,0,0
77409.13637874769,0.00023179921368966745,0.0020073315440574213,0,0
77509.1697233421,0.00023248240884308601,0.0020101919044837467,0,0
77609.20306772334,0.00023318149781540617,0.0020129744581133743,0,0
77709.23641210458,0.000233893138180223,0.002015801857589307,0,0
77809.26975648584,0.0002345691323679692,0.0020187010020745262,0,0
77909.30310108024,0.0002353112782162563,0.002021495405816387,0,0
78009.3364454615,0.0002361563294695923,0.0020244121206089093,0,0
78109.36978984273,0.00023691757952958804,0.002027212457963733,0,0
78209.40313443713,0.00023775184989089472,0.002030014887366357,0,0
78309.43647881839,0.00023854803028487622,0.0020329020359092813,0,0
78409.46982319963,0.00023930540336173658,0.0020357613833933198,0,0
78509.50316779404,0.000240031455261984,0.002038695804937397,0,0
78609.53651217528,0.00024087189874994302,0.0020415507627733567,0,0
78709.56985655653,0.00024169740749191865,0.002044472850313512,0,0
78809.60320115094,0.00024268081756757235,0.002047388920040053,0,0
78909.63654553218,0.00024376440935119944,0.0020502463492236157,0,0
79009.66988991342,0.0002446497031241699,0.002053111570465458,0,0
79109.70323450783,0.00024551987317113347,0.002056102188260707,0,0
79209.73657888907,0.0002464751013218593,0.0020590222802982085,0,0
79309.76992327033,0.0002475897399320452,0.0020618986707557274,0,0
79409.80326765157,0.0002485285161765816,0.00206493392305676,0,0
79509.83661224597,0.00024943289059922805,0.0020678821094677804,0,0
79609.86995662723,0.00025032496741166256,0.0020707841505325127,0,0
79709.90330100847,0.00025143762288695157,0.002073788828882305,0,0
79809.93664560288,0.0002524382938679526,0.0020768129917316603,0,0
