Frequency (Hz),Impedance (ohms),Phase (Radians),Temperature (C),Humidity (%)
49999.999999954525,0.0001014958351375614,0.0011978244006952518,0,0
50100.03334454893,9.407075839341596e-05,0.001190444915873932,0,0
50200.06668893018,9.443790926788846e-05,0.001192807356667353,0,0
50300.10003331142,9.479718734297823e-05,0.001195151773991298,0,0
50400.13337769267,9.514950312719897e-05,0.001197545774021682,0,0
50500.166722287075,9.548061243542353e-05,0.001199831708266957,0,0
50600.20006666832,9.581989836085024e-05,0.0012022170309162966,0,0
50700.233411049565,9.615007982175152e-05,0.0012045681139854643,0,0
50800.26675564398,9.648278791464656e-05,0.0012069337194195416,0,0
50900.30010002522,9.680180831061782e-05,0.0012093071047685746,0,0
51000.33344440647,9.711187274068816e-05,0.0012116538664384744,0,0
51100.36678900087,9.743354279209148e-05,0.001214057124982617,0,0
51200.40013338212,9.77618305970275e-05,0.0012164652217292948,0,0
51300.43347776336,9.808575117801482e-05,0.0012188373272702768,0,0
51400.46682235777,9.840695075991113e-05,0.0012212176752002995,0,0
51500.50016673902,9.874961737618271e-05,0.0012236120277990222,0,0
51600.53351112026,9.909463760310861e-05,0.0012260067832883183,0,0
51700.56685571467,9.943572278309874e-05,0.0012283977568479678,0,0
51800.60020009591,9.977961654164283e-05,0.001230802682077995,0,0
51900.63354447716,0.00010011602980129213,0.00123320693968585,0,0
52000.6668888584,0.00010046120693075965,0.0012355560423263163,0,0
52100.700233452815,0.00010080463972192965,0.0012379408640516999,0,0
52200.73357783406,0.0001011505686276938,0.0012403380491399754,0,0
52300.766922215305,0.00010149316266592551,0.0012427407086220894,0,0
52400.80026680971,0.00010184162753886015,0.001245122452307807,0,0
52500.83361119096,0.00010218623890447697,0.0012474842521126715,0,0
52600.8669555722,0.00010252419432738826,0.00124987322928562,0,0
52700.900300166606,0.00010285951692596603,0.001252236084555278,0,0
52800.933644547855,0.00010320588175978313,0.001254665464601058,0,0
52900.966988929096,0.0001035350387324201,0.001257006381137927,0,0
53001.00033352351,0.00010386613022423095,0.001259371012139802,0,0
53101.03367790475,0.00010420400369423931,0.0012617415138107923,0,0
53201.067022286,0.00010453190458028712,0.0012641524881662452,0,0
53301.100366880404,0.00010486515504948308,0.001266510178318804,0,0
53401.13371126165,0.00010520038572363182,0.0012689029950158056,0,0
53501.167055642894,0.0001055265539938954,0.0012712679589891962,0,0
53601.2004002373,0.00010585801243964633,0.001273645482554411,0,0
53701.23374461855,0.00010619248582657611,0.0012760561624518543,0,0
53801.2670889998,0.00010652283169346755,0.001278414209110591,0,0
53901.30043338104,0.00010685530371990729,0.001280792140674964,0,0
54001.333777975444,0.00010718693777071294,0.0012831862075651389,0,0
54101.36712235669,0.00010752557415860575,0.001285570212280205,0,0
54201.400466737934,0.00010785648918321113,0.0012879529435007636,0,0
54301.43381133235,0.00010819151957563478,0.0012902996537645828,0,0
54401.46715571359,0.00010852908295738759,0.0012926961986012354,0,0
54501.50050009484,0.0001088731329171205,0.001295078868701464,0,0
54601.53384468924,0.00010921799735272132,0.0012974939607600688,0,0
54701.56718907049,0.00010956206668621327,0.0012998858571337233,0,0
54801.60053345173,0.00010990525332171144,0.0013022769418143411,0,0
54901.63387804614,0.00011025612247992145,0.001304641284463739,0,0
55001.667222427386,0.00011060501463818989,0.001307036207357394,0,0
55101.700566808635,0.0001109563523507006,0.0013094680300288406,0,0
55201.73391140304,0.0001113056386781345,0.0013118568322105031,0,0
55301.76725578428,0.00011165777274629392,0.0013142565477160249,0,0
55401.80060016553,0.00011201169602496048,0.0013166339657587772,0,0
55501.83394454677,0.00011235737241292765,0.0013189856578012858,0,0
55601.867289141184,0.00011271502320379061,0.001321396451668216,0,0
55701.900633522426,0.00011306936722981443,0.0013237838256013638,0,0
55801.933977903675,0.0001134228545900075,0.001326166487233356,0,0
55901.96732249808,0.0001137832504852859,0.0013285236203352604,0,0
56002.00066687933,0.00011414178136032051,0.0013309386754069138,0,0
56102.03401126057,0.00011450308155115328,0.0013333582732391461,0,0
56202.067355854975,0.0001148693397164196,0.001335769050994121,0,0
56302.100700236224,0.00011523106407242153,0.0013381495059348418,0,0
56402.13404461747,0.00011559137766719977,0.0013405602567044981,0,0
56502.16738921188,0.00011595608048856132,0.0013429731645431754,0,0
56602.20073359312,0.00011632785749906423,0.0013453681649003913,0,0
56702.23407797437,0.00011669878004427354,0.0013477645537986057,0,0
56802.26742256877,0.00011706652946827392,0.0013501736575674682,0,0
56902.30076695002,0.00011744234353798969,0.0013526125630345105,0,0
57002.33411133126,0.00011781972579902494,0.0013550195739139488,0,0
57102.36745571251,0.00011819234378900468,0.00135739085754746,0,0
57202.40080030692,0.00011856964167900943,0.0013598051501076715,0,0
57302.434144688166,0.0001189556099960601,0.0013622281679133473,0,0
57402.46748906941,0.00011935249825773988,0.0013646580217581785,0,0
57502.50083366381,0.00011973504719664131,0.0013670739709390068,0,0
57602.53417804506,0.00012013380096027457,0.0013695239446932944,0,0
57702.56752242631,0.00012053586056775104,0.0013719507375731495,0,0
57802.600867020716,0.00012095093447425323,0.001374384312132187,0,0
57902.63421140196,0.00012136535193575174,0.001376798338123597,0,0
58002.667555783206,0.00012179527513678138,0.0013792437415695365,0,0
58102.70090037761,0.0001222545311163021,0.0013816994999496103,0,0
58202.73424475886,0.00012271967802548068,0.001384154293841638,0,0
58302.7675891401,0.00012320695160878564,0.0013866076702572453,0,0
58402.800933734514,0.00012372052088033947,0.001389048861151818,0,0
58502.834278115755,0.0001242541888024913,0.0013914726255342003,0,0
58602.867622497004,0.00012480803127940383,0.0013938645556767946,0,0
58702.90096709141,0.00012537535593018588,0.0013962175178466331,0,0
58802.93431147265,0.00012594417061353205,0.001398508621923467,0,0
58902.9676558539,0.0001265048243694512,0.001400780597531365,0,0
59003.00100023515,0.00012703320533891729,0.0014030083918846034,0,0
59103.03434482955,0.00012752732996280044,0.001405198033386883,0,0
59203.067689210795,0.00012798764330384626,0.00140738921300579,0,0
59303.101033592044,0.00012841469272719771,0.0014096257669174088,0,0
59403.13437818645,0.0001288093278057851,0.0014118635644164833,0,0
59503.1677225677,0.00012917242333592208,0.0014140307521815908,0,0
59603.20106694894,0.00012953586500932216,0.0014163231202590101,0,0
59703.23441154335,0.00012987989563566658,0.001418544573655636,0,0
59803.26775592459,0.000130231761105549,0.0014208401566569433,0,0
59903.30110030584,0.00013057962748164273,0.0014231287851472663,0,0
60003.33444490025,0.00013093387989388552,0.001425487655482251,0,0
60103.36778928149,0.00013129597608182173,0.0014277991239676521,0,0
60203.40113366274,0.0001316573037287347,0.0014301616141937866,0,0
60303.43447825714,0.00013202706136458662,0.0014325368858609242,0,0
60403.46782263839,0.00013239821571271049,0.001434877661605154,0,0
60503.50116701963,0.00013277886722613195,0.001437291344980592,0,0
60603.53451140088,0.00013315888687679423,0.0014396089581799885,0,0
60703.56785599529,0.00013353416586085688,0.001441950985708949,0,0
60803.601200376535,0.00013392203905757022,0.001444322069149003,0,0
60903.63454475778,0.00013430588717486068,0.0014466235376025742,0,0
61003.66788935219,0.0001346998110481868,0.0014490590576321525,0,0
61103.70123373343,0.00013508746405365086,0.0014513815041424052,0,0
61203.73457811468,0.00013547656674233962,0.0014537200528356056,0,0
61303.767922709085,0.00013587581616875653,0.0014561190366967347,0,0
61403.801267090326,0.0001362677994953802,0.0014584725091585497,0,0
61503.834611471575,0.0001366661999646888,0.0014608654643422795,0,0
61603.86795606598,0.00013706621820445912,0.0014632409232425588,0,0
61703.90130044723,0.0001374614682325976,0.0014656139533300583,0,0
61803.93464482847,0.00013785256766790134,0.0014679562669972738,0,0
61903.96798942288,0.0001382447226165801,0.0014703081048328957,0,0
62004.001333804124,0.00013863420849706567,0.0014726653718487078,0,0
62104.03467818537,0.0001390208905271415,0.0014750452912152237,0,0
62204.06802277978,0.00013940759974438865,0.001477407481169305,0,0
62304.10136716103,0.00013979300152712693,0.0014797488402837355,0,0
62404.13471154227,0.0001401740839051763,0.0014821117887963658,0,0
62504.16805592352,0.00014055261172849553,0.001484417501817888,0,0
62604.20140051792,0.00014092873747118204,0.00148675536684128,0,0
62704.234744899164,0.00014131035623632162,0.0014890849923569933,0,0
62804.26808928041,0.0001416851701920065,0.001491364991217107,0,0
62904.30143387482,0.00014207196031799617,0.0014937235529240186,0,0
63004.33477825607,0.00014244649287930785,0.0014959765148693015,0,0
63104.36812263731,0.0001428387062503322,0.0014984105709094267,0,0
63204.40146723172,0.0001432255657794574,0.001500728156639058,0,0
63304.43481161296,0.0001436072707494085,0.001503036496201477,0,0
63404.46815599421,0.00014399203139374024,0.0015053803302085924,0,0
63504.501500588616,0.00014436274135104876,0.0015076663095669315,0,0
63604.534844969865,0.00014473311098734879,0.0015099962363475407,0,0
63704.56818935111,0.0001451098700372392,0.0015123482209910138,0,0
63804.60153394552,0.00014547878272224685,0.0015146791904061077,0,0
63904.63487832676,0.0001458508816913158,0.0015170843900717199,0,0
64004.668222708,0.00014621067683584496,0.0015194144544194294,0,0
64104.70156708925,0.000146587777402807,0.0015218018735593832,0,0
64204.734911683656,0.0001469666642523849,0.0015241372410901082,0,0
64304.768256064905,0.00014734576381781762,0.0015264887494527677,0,0
64404.801600446146,0.00014773189504783225,0.0015288346579581267,0,0
64504.83494504056,0.0001481318218715688,0.0015312269724139982,0,0
64604.8682894218,0.0001485268146346072,0.0015335805695845513,0,0
64704.90163380305,0.00014892381572171353,0.0015359487918712772,0,0
64804.934978397454,0.0001493163037199119,0.0015382779304846169,0,0
64904.9683227787,0.00014970939927779777,0.0015405978372000232,0,0
65005.001667159944,0.00015011346177916098,0.0015430647759729413,0,0
65105.03501175436,0.00015051187102735385,0.0015453844558913812,0,0
65205.0683561356,0.0001509127553694002,0.0015477634547217494,0,0
65305.10170051684,0.0001513107790726721,0.0015501392858214033,0,0
65405.13504511125,0.0001517121066566836,0.0015524762650560597,0,0
65505.16838949249,0.0001521160149247513,0.001554849170032484,0,0
65605.20173387374,0.0001525165166483995,0.0015572472427090639,0,0
65705.23507825499,0.00015291738729798651,0.0015596279428694076,0,0
65805.26842284939,0.00015332818814382397,0.0015619872794589403,0,0
65905.30176723065,0.0001537286322545903,0.0015643474229682052,0,0
66005.33511161189,0.00015413443835868588,0.0015667103902332988,0,0
66105.3684562063,0.00015453223132167823,0.0015690902465943853,0,0
66205.40180058754,0.00015493496170707245,0.0015714557817925988,0,0
66305.43514496878,0.00015533910997943476,0.001573859700762692,0,0
66405.4684895632,0.00015574743967746905,0.0015762201105944298,0,0
66505.50183394444,0.00015615653888884106,0.0015785894049683527,0,0
66605.53517832568,0.00015656819747888196,0.0015809713991861837,0,0
66705.56852292009,0.0001569735956262425,0.0015832994753957848,0,0
66805.60186730133,0.0001573924532085886,0.0015857029737019988,0,0
66905.63521168257,0.00015781210125521988,0.0015880761244386006,0,0
67005.66855627699,0.00015823564027304038,0.0015904924595687394,0,0
67105.70190065823,0.00015865421503435904,0.001592841202028623,0,0
67205.73524503948,0.00015908207971772505,0.0015952328802979806,0,0
67305.76858963388,0.00015951103266798362,0.0015976271527324212,0,0
67405.80193401514,0.00015993399130576123,0.0015999871847635413,0,0
67505.83527839638,0.00016036062214808025,0.001602368569191041,0,0
67605.86862277762,0.00016079898448232078,0.0016047771175391249,0,0
67705.90196737203,0.00016124137176050333,0.0016072104540583397,0,0
67805.93531175327,0.00016167692601705842,0.0016095834408227636,0,0
67905.96865613452,0.00016212101291802135,0.001611966953767041,0,0
68006.00200072893,0.00016256658641868306,0.0016144094950107028,0,0
68106.03534511017,0.00016300372817462896,0.0016167815024375604,0,0
68206.06868949141,0.00016345844999044555,0.0016192422945675922,0,0
68306.10203408582,0.0001639010451324901,0.0016216200016374886,0,0
68406.13537846706,0.00016435670268088808,0.0016240398322073162,0,0
68506.16872284832,0.00016480873370915502,0.001626460424819877,0,0
68606.20206744272,0.00016525437016940174,0.0016288663569290816,0,0
68706.23541182397,0.00016570895188093142,0.0016312737778829984,0,0
68806.26875620522,0.0001661602428909958,0.0016336788059963486,0,0
68906.30210079963,0.00016661585792783498,0.0016360644173984498,0,0
69006.33544518087,0.00016707470632353503,0.001638518821514175,0,0
69106.36878956211,0.0001675231797613078,0.00164081529352702,0,0
69206.40213394335,0.00016798504420735048,0.0016432676944655806,0,0
69306.43547853777,0.00016844389815571194,0.0016456650254147098,0,0
69406.468822919,0.0001689078039831457,0.0016480922667108037,0,0
69506.50216730025,0.0001693643562449082,0.0016504130665322791,0,0
69606.53551189466,0.00016983402742426894,0.0016528399022548688,0,0
69706.5688562759,0.0001703048164765053,0.0016552691586217022,0,0
69806.60220065716,0.00017077460125380702,0.0016577058193766251,0,0
69906.63554525156,0.00017124096166548582,0.0016601267531401855,0,0
70006.66888963281,0.0001717106701137076,0.0016625378099336726,0,0
70106.70223401405,0.0001721860226263518,0.001664960619794061,0,0
70206.73557860847,0.0001726481926343586,0.0016673387744474675,0,0
70306.76892298971,0.00017312804435938911,0.0016697646337501188,0,0
70406.80226737095,0.00017360237994400992,0.0016721757454523445,0,0
70506.83561196536,0.00017408041579823188,0.0016745567132762842,0,0
70606.8689563466,0.0001745601239676355,0.0016769794644050477,0,0
70706.90230072784,0.00017503541898098273,0.0016793591741970856,0,0
70806.93564510909,0.00017552139744348122,0.0016817661786370786,0,0
70906.9689897035,0.0001760034465177635,0.0016841832331690692,0,0
71007.00233408474,0.00017648435018919128,0.0016865869510616584,0,0
71107.035678466,0.00017695932082721337,0.0016889290315191482,0,0
71207.0690230604,0.00017744679156797338,0.0016913713730496939,0,0
71307.10236744165,0.00017794227156742116,0.0016938685484320537,0,0
71407.13571182289,0.00017842049951362037,0.001696181412790156,0,0
71507.1690564173,0.00017890669551522817,0.0016985822372726628,0,0
71607.20240079855,0.00017939937961521205,0.0017010263644494745,0,0
71707.23574517979,0.00017989157972839677,0.0017034937675562605,0,0
71807.2690897742,0.0001803779344156929,0.001705844251904154,0,0
71907.30243415544,0.00018087032095118728,0.0017082764717965063,0,0
72007.33577853668,0.0001813602629889162,0.0017107134278668,0,0
72107.3691231311,0.00018184527310832318,0.001713098852423043,0,0
72207.40246751234,0.00018233649515321908,0.0017154911173798287,0,0
72307.43581189358,0.00018283108725850424,0.0017178969622284293,0,0
72407.46915648799,0.00018332422498047466,0.00172033377805485,0,0
72507.50250086923,0.00018382962970493687,0.0017227622825105903,0,0
72607.53584525049,0.00018433524548937703,0.0017252329204124704,0,0
72707.56918963173,0.00018483435892326807,0.0017275642408084509,0,0
72807.60253422614,0.0001853508202706234,0.0017299873956837801,0,0
72907.63587860738,0.00018586467501260757,0.0017324119570834777,0,0
73007.66922298862,0.00018640136218463926,0.0017348634102480848,0,0
73107.70256758304,0.0001869280855050659,0.0017372011732195135,0,0
73207.73591196428,0.00018746562120381467,0.0017395994234067748,0,0
73307.76925634552,0.0001880147364965232,0.0017420123947921207,0,0
73407.80260093993,0.0001885656918378949,0.001744362564115604,0,0
73507.83594532117,0.00018912090833540844,0.0017467138433473319,0,0
73607.86928970242,0.00018968697425498815,0.001749125465435276,0,0
73707.90263429683,0.00019023981576119298,0.0017514405282600051,0,0
73807.93597867807,0.0001907619528645375,0.0017536619789333293,0,0
73907.96932305933,0.00019126856839967365,0.0017559974256177045,0,0
74008.00266765372,0.0001917471634045027,0.00175828890314061,0,0
74108.03601203498,0.0001921868246160637,0.001760550780423966,0,0
74208.06935641622,0.0001926066193692776,0.0017628970588946344,0,0
74308.10270079746,0.00019301141139181584,0.001765261971509842,0,0
74408.13604539188,0.0001934151075961157,0.001767685582885783,0,0
74508.16938977312,0.0001937977396326646,0.0017700392421489803,0,0
74608.20273415436,0.0001942047765007501,0.0017724624946587764,0,0
74708.23607874877,0.00019461928167513966,0.0017749154349732165,0,0
74808.26942313001,0.00019504581875514325,0.0017773402241805128,0,0
74908.30276751125,0.0001954935312005015,0.0017798338372709201,0,0
75008.33611210567,0.00019594068612718097,0.0017822800992917385,0,0
75108.36945648691,0.0001963994140393662,0.0017847184023624181,0,0
75208.40280086816,0.00019686924958503075,0.001787202156999834,0,0
75308.43614546256,0.00019733997371868404,0.0017896328739704685,0,0
75408.46948984382,0.00019783635697705255,0.0017921205231248394,0,0
75508.50283422506,0.00019832778351384304,0.0017946239423226866,0,0
75608.53617881946,0.00019881449655752037,0.0017970109833110046,0,0
75708.56952320071,0.00019932585564472413,0.0017995398491613044,0,0
75808.60286758195,0.0001998199682771852,0.001802050918514945,0,0
75908.63621217637,0.00020032720379313784,0.001804482537403377,0,0
76008.66955655761,0.00020085793283838727,0.0018070663546118485,0,0
76108.70290093885,0.00020138841399066265,0.0018096233779957365,0,0
76208.73624532009,0.00020191038465169905,0.0018120410056143852,0,0
76308.7695899145,0.0002024367421786679,0.001814522561773542,0,0
76408.80293429575,0.0002029869645235759,0.001817072689412967,0,0
76508.836278677,0.00020354314999505635,0.0018195342103881373,0,0
76608.8696232714,0.00020409976005662312,0.0018220663983967726,0,0
76708.90296765266,0.0002046636704994234,0.0018245443423037095,0,0
76808.9363120339,0.00020524183662611552,0.0018270737004763005,0,0
76908.9696566283,0.00020582216374940456,0.0018295745618220332,0,0
77009.00300100955,0.00020641454951250755,0.0018321201614785534,0,0
77109.03634539079,0.0002070075997789867,0.001834675588242043,0,0
77209.0696899852,0.00020759087317725265,0.0018371809756582104,0,0
77309.10303436645,0.00020817825214834642,0.0018397493698477788,0,0
77409.13637874769,0.0002087827519725033,0.001842369528230833,0,0
77509.1697233421,0.00020937053473258583,0.0018449677836719857,0,0
77609.20306772334,0.0002100140499785807,0.0018477126621848083,0,0
77709.23641210458,0.00021068626951227472,0.0018504967614694093,0,0
77809.26975648584,0.00021144148073380862,0.0018533076823624283,0,0
77909.30310108024,0.0002123022029770262,0.0018562890621391577,0,0
78009.3364454615,0.00021329704393453016,0.0018593309206614305,0,0
78109.36978984273,0.0002144702960024756,0.0018624103713581854,0,0
78209.40313443713,0.00021591496806075338,0.001865628909952304,0,0
78309.43647881839,0.00021772344479484707,0.0018689073454832166,0,0
78409.46982319963,0.00022008117006841644,0.0018722302714374167,0,0
78509.50316779404,0.00022323304733815605,0.0018753465487434192,0,0
78609.53651217528,0.0002274731564841317,0.001877784093498457,0,0
78709.56985655653,0.0002329205776545896,0.0018785822167792644,0,0
78809.60320115094,0.00023850988126296153,0.0018762191529813409,0,0
78909.63654553218,0.00024107473084835243,0.0018704369659283627,0,0
79009.66988991342,0.00023830647211200057,0.001864835008376715,0,0
79109.70323450783,0.00023272047021256944,0.0018631326315919567,0,0
79209.73657888907,0.00022774743700718024,0.0018648692342500585,0,0
79309.76992327033,0.00022433763868365172,0.0018681816791778405,0,0
79409.80326765157,0.00022222248644387222,0.0018718805160650774,0,0
79509.83661224597,0.00022100372975886534,0.001875663966996437,0,0
79609.86995662723,0.00022032891442200168,0.001879248890143017,0,0
79709.90330100847,0.0002200216846909161,0.0018826751469278179,0,0
79809.93664560288,0.00021995063780272584,0.0018859750468375443,0,0
79909.96998998412,0.00022003043246109538,0.0018890900810193253,0,0
