Frequency (Hz),Impedance (ohms),Phase (Radians),Temperature (C),Humidity (%)
49999.999999954525,0.00010069831373924719,0.0012857037310976818,0,0
50100.03334454893,9.604027981698407e-05,0.0012784937274133794,0,0
50200.06668893018,9.63720366284773e-05,0.001281213428560379,0,0
50300.10003331142,9.671164022908618e-05,0.0012840139513734087,0,0
50400.13337769267,9.704989590489195e-05,0.0012867722724490638,0,0
50500.166722287075,9.739102760338911e-05,0.0012894748963267735,0,0
50600.20006666832,9.774211791079366e-05,0.0012922659940284124,0,0
50700.233411049565,9.808407202378812e-05,0.0012949560964220458,0,0
50800.26675564398,9.842928422089533e-05,0.0012976761094062356,0,0
50900.30010002522,9.878820888670702e-05,0.0013004562639145976,0,0
51000.33344440647,9.914142163135824e-05,0.0013031824078224763,0,0
51100.36678900087,9.949902389271333e-05,0.001305906688347513,0,0
51200.40013338212,9.985072417451173e-05,0.001308587891127745,0,0
51300.43347776336,0.0001002097569601859,0.0013113065210353296,0,0
51400.46682235777,0.00010057395937077645,0.0013139874654077696,0,0
51500.50016673902,0.00010093700209349564,0.0013166842457070565,0,0
51600.53351112026,0.00010129648639572947,0.0013194007102244965,0,0
51700.56685571467,0.00010167202706238845,0.001322054988779159,0,0
51800.60020009591,0.00010203433379848621,0.0013247840123861861,0,0
51900.63354447716,0.00010240786077179393,0.001327492227345049,0,0
52000.6668888584,0.00010277415968189422,0.0013301533783168387,0,0
52100.700233452815,0.0001031401349139167,0.001332828922085965,0,0
52200.73357783406,0.00010351929642077544,0.0013355393992134472,0,0
52300.766922215305,0.00010389826233436701,0.001338231593405816,0,0
52400.80026680971,0.00010428007561850661,0.0013409270683821793,0,0
52500.83361119096,0.000104657808534043,0.0013435912637861772,0,0
52600.8669555722,0.00010504294907826102,0.001346286163770256,0,0
52700.900300166606,0.00010541857398868064,0.0013489413504515697,0,0
52800.933644547855,0.00010580392108232287,0.001351600236887931,0,0
52900.966988929096,0.0001061903425068066,0.0013543004157622173,0,0
53001.00033352351,0.00010658155107671062,0.0013569703311245365,0,0
53101.03367790475,0.00010696526608818869,0.0013596153299305306,0,0
53201.067022286,0.00010735746427646461,0.0013622711058056682,0,0
53301.100366880404,0.00010775293028363009,0.0013649455458678767,0,0
53401.13371126165,0.00010814831102340196,0.0013676772057875264,0,0
53501.167055642894,0.00010854564600096706,0.0013702533272926438,0,0
53601.2004002373,0.00010895074819181768,0.0013729634261357459,0,0
53701.23374461855,0.0001093535416236962,0.0013756412711583429,0,0
53801.2670889998,0.00010976681607446645,0.0013783688113481022,0,0
53901.30043338104,0.00011016903722436092,0.0013809796898490594,0,0
54001.333777975444,0.00011058093817250485,0.00138369360277661,0,0
54101.36712235669,0.00011099493372068987,0.0013863795950423857,0,0
54201.400466737934,0.00011140800009479741,0.0013890789386711818,0,0
54301.43381133235,0.00011182209946714459,0.0013917408010972983,0,0
54401.46715571359,0.00011225210813057814,0.0013944429660377939,0,0
54501.50050009484,0.0001126680041539303,0.0013971157979110465,0,0
54601.53384468924,0.00011310123780515144,0.0013998004363770776,0,0
54701.56718907049,0.00011353265742824022,0.0014024649050034914,0,0
54801.60053345173,0.00011396551765391668,0.0014051290051535163,0,0
54901.63387804614,0.00011440277791932589,0.0014078232654641603,0,0
55001.667222427386,0.00011484821290315287,0.0014104944765548973,0,0
55101.700566808635,0.00011530131694371801,0.0014131576181616113,0,0
55201.73391140304,0.00011576149785703985,0.0014158840630360534,0,0
55301.76725578428,0.0001162302336466267,0.0014185962320946996,0,0
55401.80060016553,0.00011670391611989348,0.00142123202273996,0,0
55501.83394454677,0.00011719325651256277,0.001423894334925491,0,0
55601.867289141184,0.000117691046570367,0.0014265603128973303,0,0
55701.900633522426,0.00011819443051747256,0.0014291829694901414,0,0
55801.933977903675,0.00011869917695562344,0.0014317839367053722,0,0
55901.96732249808,0.00011921265128727331,0.001434388180487586,0,0
56002.00066687933,0.00011972633621635048,0.0014369969863596615,0,0
56102.03401126057,0.00012023658126451241,0.0014395942799375386,0,0
56202.067355854975,0.0001207354827673795,0.0014421559393892967,0,0
56302.100700236224,0.000121215754229135,0.0014447088643384177,0,0
56402.13404461747,0.00012169413268359106,0.001447201171509922,0,0
56502.16738921188,0.0001221289036939786,0.001449741217200195,0,0
56602.20073359312,0.0001225318480453462,0.001452281999558599,0,0
56702.23407797437,0.00012291893789325502,0.001454763341692253,0,0
56802.26742256877,0.00012329234426946298,0.0014573245736677724,0,0
56902.30076695002,0.00012365974218502243,0.0014598881595098547,0,0
57002.33411133126,0.0001240253329080733,0.0014624742531233806,0,0
57102.36745571251,0.00012439357743377507,0.0014650717660748323,0,0
57202.40080030692,0.00012474817789696053,0.0014676333869535557,0,0
57302.434144688166,0.0001251109772933677,0.0014702863221220228,0,0
57402.46748906941,0.00012547192123187767,0.001472889602146966,0,0
57502.50083366381,0.00012583397764934717,0.0014755237358438555,0,0
57602.53417804506,0.00012621908668400793,0.0014782196867506984,0,0
57702.56752242631,0.0001266013678409386,0.0014808472963489438,0,0
57802.600867020716,0.0001269848788018611,0.0014835053555585015,0,0
57902.63421140196,0.00012737987621503957,0.0014861960616444605,0,0
58002.667555783206,0.00012778573397154467,0.0014889186226809846,0,0
58102.70090037761,0.0001281901113365206,0.0014916036853121846,0,0
58202.73424475886,0.00012859512754220288,0.0014942306639337706,0,0
58302.7675891401,0.00012901122945262856,0.0014969063837910299,0,0
58402.800933734514,0.00012943494393728594,0.0014996013873399409,0,0
58502.834278115755,0.0001298756904378982,0.0015023042909082496,0,0
58602.867622497004,0.00013033792694988757,0.0015049808904774502,0,0
58702.90096709141,0.00013085153529671358,0.001507757882527903,0,0
58802.93431147265,0.00013145253050475024,0.0015105709106179436,0,0
58902.9676558539,0.00013229857252872946,0.0015135273810003569,0,0
59003.00100023515,0.00013387668752632272,0.0015162388520788606,0,0
59103.03434482955,0.0001351733650254107,0.0015166146881279464,0,0
59203.067689210795,0.00013357962669297653,0.0015184869193623656,0,0
59303.101033592044,0.00013329106816864822,0.0015217615060032568,0,0
59403.13437818645,0.00013351404446179546,0.0015247259294273393,0,0
59503.1677225677,0.000133878897813994,0.0015276410539061644,0,0
59603.20106694894,0.00013428905899529216,0.0015304391708074645,0,0
59703.23441154335,0.00013470575527313032,0.0015332513524303703,0,0
59803.26775592459,0.0001351526168974925,0.0015360575536132112,0,0
59903.30110030584,0.00013558053137280145,0.0015387786211069861,0,0
60003.33444490025,0.00013603622458687066,0.0015415504751549803,0,0
60103.36778928149,0.00013649641482236851,0.0015443403676540306,0,0
60203.40113366274,0.00013698758674483044,0.0015471724845547569,0,0
60303.43447825714,0.00013750220473450592,0.0015500111068256124,0,0
60403.46782263839,0.00013805384524076498,0.001552895090472656,0,0
60503.50116701963,0.00013866879942351216,0.0015557776485144296,0,0
60603.53451140088,0.00013938051039847558,0.0015588160736184965,0,0
60703.56785599529,0.0001402585448149033,0.0015617981284469478,0,0
60803.601200376535,0.0001415233210994588,0.0015649793869945798,0,0
60903.63454475778,0.00014354259816322186,0.0015679662690700933,0,0
61003.66788935219,0.00014650702305227614,0.001569522704171028,0,0
61103.70123373343,0.00014770817889410532,0.0015684845600614577,0,0
61203.73457811468,0.00014582790410587275,0.0015689437435676282,0,0
61303.767922709085,0.00014433455317142252,0.0015715678530254108,0,0
61403.801267090326,0.00014376784248898187,0.001574641045112582,0,0
61503.834611471575,0.00014368145789717907,0.0015777227097919402,0,0
61603.86795606598,0.0001438386621696579,0.0015807235714345668,0,0
61703.90130044723,0.0001441231395528686,0.0015836797130104733,0,0
61803.93464482847,0.00014446648869762528,0.001586523342397671,0,0
61903.96798942288,0.00014485311188796506,0.0015893372122889689,0,0
62004.001333804124,0.0001452672147102837,0.0015921469496542797,0,0
62104.03467818537,0.0001457015832112236,0.0015949896869015645,0,0
62204.06802277978,0.00014614212286202742,0.0015977012484005232,0,0
62304.10136716103,0.00014659140680772185,0.0016004663199769781,0,0
62404.13471154227,0.00014704070407911936,0.0016031452182638313,0,0
62504.16805592352,0.0001475035925262428,0.0016058689183465586,0,0
62604.20140051792,0.0001479693811191725,0.0016085635019808407,0,0
62704.234744899164,0.00014843346536665158,0.0016112163267885378,0,0
62804.26808928041,0.00014890109161474975,0.0016138837380825805,0,0
62904.30143387482,0.0001493842267663354,0.0016166059379251526,0,0
63004.33477825607,0.0001498606593048057,0.0016192950647089953,0,0
63104.36812263731,0.00015032252700854657,0.0016219758021570442,0,0
63204.40146723172,0.000150818851632453,0.0016246919654650126,0,0
63304.43481161296,0.00015130125513827786,0.0016273781051770416,0,0
63404.46815599421,0.0001517902207047496,0.0016300577869187577,0,0
63504.501500588616,0.0001522839160918276,0.001632759138334488,0,0
63604.534844969865,0.00015278590802948833,0.0016354894798436288,0,0
63704.56818935111,0.00015327899002025506,0.0016381772410518423,0,0
63804.60153394552,0.00015376603985012283,0.0016407974011414075,0,0
63904.63487832676,0.00015427014469826444,0.0016435316271686076,0,0
64004.668222708,0.00015476720087418989,0.0016462319691303404,0,0
64104.70156708925,0.00015526610200824805,0.0016489056936607963,0,0
64204.734911683656,0.000155772488454876,0.0016516326520014351,0,0
64304.768256064905,0.00015626624015545153,0.0016542520480577936,0,0
64404.801600446146,0.00015676003859691428,0.0016569173504311975,0,0
64504.83494504056,0.00015726149582320477,0.0016595886027279507,0,0
64604.8682894218,0.00015776296744878128,0.00166230898507326,0,0
64704.90163380305,0.00015826496877293722,0.0016649766679584744,0,0
64804.934978397454,0.00015876968565573923,0.0016676397562329533,0,0
64904.9683227787,0.00015926596787003964,0.0016702871120722034,0,0
65005.001667159944,0.00015978276722154446,0.0016729904366136708,0,0
65105.03501175436,0.00016028869805844944,0.0016756165070360752,0,0
65205.0683561356,0.00016079717778794375,0.001678303672191577,0,0
65305.10170051684,0.0001612982822228309,0.001680937211659272,0,0
65405.13504511125,0.00016180703323832293,0.0016835628687289724,0,0
65505.16838949249,0.00016232450427642502,0.001686237808882409,0,0
65605.20173387374,0.00016283849813259114,0.0016889288999939456,0,0
65705.23507825499,0.00016336490883441822,0.0016916509690728815,0,0
65805.26842284939,0.00016388338461616393,0.0016942366975053508,0,0
65905.30176723065,0.0001644065356279514,0.0016968528186930268,0,0
66005.33511161189,0.00016493681940518137,0.0016996217587761696,0,0
66105.3684562063,0.00016546456403623098,0.0017022283321663503,0,0
66205.40180058754,0.00016599103883828216,0.0017048566369023779,0,0
66305.43514496878,0.00016652912528372096,0.0017074597213231058,0,0
66405.4684895632,0.0001670702533915379,0.0017101216631334637,0,0
66505.50183394444,0.00016761873071800725,0.001712730840752627,0,0
66605.53517832568,0.00016815871835570363,0.0017153808007640669,0,0
66705.56852292009,0.00016868725241440485,0.0017179317891843817,0,0
66805.60186730133,0.00016920410406561645,0.0017204746024853102,0,0
66905.63521168257,0.00016967868270216638,0.0017230261442134499,0,0
67005.66855627699,0.0001701169354105176,0.0017255220917740805,0,0
67105.70190065823,0.00017053803316090097,0.0017282297549160918,0,0
67205.73524503948,0.0001709307092913413,0.0017307859634060371,0,0
67305.76858963388,0.00017133450942654582,0.001733461330050397,0,0
67405.80193401514,0.0001717677942949956,0.0017361702520084573,0,0
67505.83527839638,0.00017221880026638923,0.0017389163214963283,0,0
67605.86862277762,0.00017269785259497902,0.0017416511218534625,0,0
67705.90196737203,0.00017318292084182136,0.0017443643349465622,0,0
67805.93531175327,0.00017369037766366103,0.001747075899683376,0,0
67905.96865613452,0.00017420530893223407,0.0017498168084990138,0,0
68006.00200072893,0.00017472140664014,0.0017525071389944717,0,0
68106.03534511017,0.00017522961146944588,0.001755126607989468,0,0
68206.06868949141,0.00017576509076211617,0.0017578669876265537,0,0
68306.10203408582,0.0001762855689464595,0.001760532150274059,0,0
68406.13537846706,0.0001768075441125757,0.0017631894972273527,0,0
68506.16872284832,0.0001773448642243708,0.0017658961335888736,0,0
68606.20206744272,0.00017787868338487066,0.00176857705291036,0,0
68706.23541182397,0.00017841030475683237,0.0017712569782370334,0,0
68806.26875620522,0.00017894729313012436,0.0017739357927029908,0,0
68906.30210079963,0.00017947560378435418,0.0017765679458952275,0,0
69006.33544518087,0.0001800182989565364,0.0017792575697254003,0,0
69106.36878956211,0.00018055260038637633,0.0017819394755916233,0,0
69206.40213394335,0.00018109022424277652,0.0017846161207200173,0,0
69306.43547853777,0.00018163445152869048,0.0017872891726449323,0,0
69406.468822919,0.00018217549900077928,0.0017899882394932303,0,0
69506.50216730025,0.00018272409182944798,0.001792736658599177,0,0
69606.53551189466,0.00018327671878806977,0.001795405991489027,0,0
69706.5688562759,0.0001838205855875428,0.00179806822534132,0,0
69806.60220065716,0.0001843576371646959,0.00180073134232884,0,0
69906.63554525156,0.00018491409633072215,0.0018033946455484492,0,0
70006.66888963281,0.00018547111453034933,0.001806084587768842,0,0
70106.70223401405,0.0001860269070492548,0.00180881542490587,0,0
70206.73557860847,0.00018658685607357006,0.0018115265549538012,0,0
70306.76892298971,0.00018713523244287065,0.0018141512683563965,0,0
70406.80226737095,0.00018770547820682836,0.0018168490520746258,0,0
70506.83561196536,0.00018827063675516513,0.0018195283410115642,0,0
70606.8689563466,0.00018884048397488446,0.0018222239653411763,0,0
70706.90230072784,0.00018940300170757138,0.0018248822677634608,0,0
70806.93564510909,0.00018998986341010996,0.0018275713372443853,0,0
70906.9689897035,0.000190585655552729,0.001830259915642873,0,0
71007.00233408474,0.00019117333936869636,0.0018329299621875877,0,0
71107.035678466,0.00019177431663099667,0.0018356273928119766,0,0
71207.0690230604,0.00019239560680614723,0.0018382815225402608,0,0
71307.10236744165,0.00019301643162448158,0.0018410118725956416,0,0
71407.13571182289,0.00019365085629342055,0.0018436095733118949,0,0
71507.1690564173,0.00019424325537333143,0.0018461960090234181,0,0
71607.20240079855,0.00019479259214504136,0.0018486857137059794,0,0
71707.23574517979,0.0001952917346470977,0.0018512784833284279,0,0
71807.2690897742,0.0001957402186722185,0.0018538854663852757,0,0
71907.30243415544,0.00019617924431240358,0.0018565577946420618,0,0
72007.33577853668,0.00019663908435595104,0.001859233845239508,0,0
72107.3691231311,0.00019713873752631953,0.0018620253229169848,0,0
72207.40246751234,0.00019762114686603112,0.0018646135580753448,0,0
72307.43581189358,0.0001981364263347127,0.0018673774022597773,0,0
72407.46915648799,0.00019866153094178578,0.0018700907094881068,0,0
72507.50250086923,0.0001992090351094359,0.0018728661580724919,0,0
72607.53584525049,0.0001997635898932468,0.0018756123267035939,0,0
72707.56918963173,0.00020033087508147305,0.001878411220263135,0,0
72807.60253422614,0.000200896210967377,0.001881126122269187,0,0
72907.63587860738,0.00020146752404591125,0.00188383823881122,0,0
73007.66922298862,0.00020203479954452103,0.0018865800864399176,0,0
73107.70256758304,0.0002026054704918069,0.0018892595693313528,0,0
73207.73591196428,0.0002031953672106362,0.0018920153677108003,0,0
73307.76925634552,0.00020377150080872012,0.0018947108642594073,0,0
73407.80260093993,0.00020436558688706103,0.0018975238616055626,0,0
73507.83594532117,0.00020493923988584308,0.0019002665970812098,0,0
73607.86928970242,0.00020553116535076523,0.0019029212214240114,0,0
73707.90263429683,0.00020610214006113082,0.0019057279102653191,0,0
73807.93597867807,0.00020670205446672138,0.0019084292023801312,0,0
73907.96932305933,0.00020729569919982876,0.0019111553480855256,0,0
74008.00266765372,0.00020790147517952838,0.0019139280654680182,0,0
74108.03601203498,0.00020849597473647462,0.0019166677997955299,0,0
74208.06935641622,0.0002090822049655903,0.0019193320037457686,0,0
74308.10270079746,0.00020967885825790825,0.0019220635592644363,0,0
74408.13604539188,0.0002102828410283634,0.001924809709452355,0,0
74508.16938977312,0.00021089058477888608,0.0019275523546751876,0,0
74608.20273415436,0.000211487404438245,0.0019303028876577713,0,0
74708.23607874877,0.00021209926252063649,0.001933016575834937,0,0
74808.26942313001,0.00021271194597004948,0.001935742966901593,0,0
74908.30276751125,0.00021331971073310186,0.001938484186950231,0,0
75008.33611210567,0.0002139402093464356,0.001941293073739506,0,0
75108.36945648691,0.00021456007331144202,0.0019440478237333762,0,0
75208.40280086816,0.0002151715624377878,0.0019467348709144951,0,0
75308.43614546256,0.00021579519415964037,0.0019494814407310277,0,0
75408.46948984382,0.0002164052067871361,0.0019522290731086758,0,0
75508.50283422506,0.00021703345803382817,0.0019549787742752134,0,0
75608.53617881946,0.0002176682038333948,0.0019577424582747733,0,0
75708.56952320071,0.00021832289139059725,0.0019605441432998597,0,0
75808.60286758195,0.0002190140702919366,0.001963327059444036,0,0
75908.63621217637,0.000219760422672273,0.0019660219112858906,0,0
76008.66955655761,0.000220434332777533,0.0019685688385177188,0,0
76108.70290093885,0.00022093892660063162,0.0019712595160699094,0,0
76208.73624532009,0.0002214382012779249,0.001973972203738234,0,0
76308.7695899145,0.00022198276550535335,0.0019767412486308544,0,0
76408.80293429575,0.00022258709260581804,0.0019796130029938173,0,0
76508.836278677,0.00022320733229885912,0.0019823346033213895,0,0
76608.8696232714,0.00022384881706282743,0.001985193153231136,0,0
76708.90296765266,0.0002244966514370755,0.0019879897345263095,0,0
76808.9363120339,0.00022515161875603866,0.001990766599489583,0,0
76908.9696566283,0.000225829213306328,0.00199368445739205,0,0
77009.00300100955,0.00022649061884482506,0.0019964404675177744,0,0
77109.03634539079,0.000227154531256326,0.001999240258769206,0,0
77209.0696899852,0.00022783553858862708,0.0020020899039391755,0,0
77309.10303436645,0.0002285078781083886,0.0020048439446730976,0,0
77409.13637874769,0.0002292000499364323,0.002007711061616119,0,0
77509.1697233421,0.0002299016208279661,0.002010594949082035,0,0
77609.20306772334,0.0002305844901445087,0.002013375576620355,0,0
77709.23641210458,0.0002312893813051731,0.0020162323546775627,0,0
77809.26975648584,0.00023199442672855556,0.0020190285844458207,0,0
77909.30310108024,0.00023271630818734207,0.002021917711947684,0,0
78009.3364454615,0.0002334461966686985,0.002024823140256975,0,0
78109.36978984273,0.00023416285928744564,0.002027636445018719,0,0
78209.40313443713,0.0002349036317590078,0.002030498548566751,0,0
78309.43647881839,0.00023565821086597973,0.002033390967356479,0,0
78409.46982319963,0.00023641608457941244,0.0020362366642653422,0,0
78509.50316779404,0.00023718833420229075,0.0020390914034954517,0,0
78609.53651217528,0.0002379664068700347,0.002042007805218456,0,0
78709.56985655653,0.00023875797579823348,0.0020449022118431705,0,0
78809.60320115094,0.0002395444171382075,0.0020477247737248623,0,0
78909.63654553218,0.00024036464531220267,0.002050641234570881,0,0
79009.66988991342,0.00024121054233884736,0.0020535657912197853,0,0
79109.70323450783,0.00024205190313399464,0.0020564719132094137,0,0
79209.73657888907,0.0002429254843330944,0.0020593215533638545,0,0
79309.76992327033,0.0002438290454834627,0.0020622969747359976,0,0
79409.80326765157,0.0002447322068374213,0.0020651289212175743,0,0
79509.83661224597,0.0002456944690339073,0.0020681371557948413,0,0
79609.86995662723,0.00024666563503069976,0.0020710123666672813,0,0
79709.90330100847,0.0002476778082002607,0.0020738892525665716,0,0
79809.93664560288,0.0002487329265746859,0.0020767535362783175,0,0
79909.96998998412,0.00024982956218942324,0.0020796565516548243,0,0
