Frequency (Hz),Impedance (ohms),Phase (Radians),Temperature (C),Humidity (%)
49999.999999954525,0.00010124230878227602,0.0012830051597178416,0,0
50100.03334454893,9.733037130474044e-05,0.0012773990000454825,0,0
50200.06668893018,9.777583069085495e-05,0.0012801606156920174,0,0
50300.10003331142,9.823793080443714e-05,0.0012829373928212884,0,0
50400.13337769267,9.872440402582942e-05,0.0012857372396246505,0,0
50500.166722287075,9.922573675618286e-05,0.0012884740329889921,0,0
50600.20006666832,9.97438053995525e-05,0.0012912250742381822,0,0
50700.233411049565,0.00010027233480537662,0.001293905333793332,0,0
50800.26675564398,0.0001008214917461247,0.0012966464220923344,0,0
50900.30010002522,0.00010140523966600622,0.0012993339798021794,0,0
51000.33344440647,0.00010200477701475521,0.0013020354796563207,0,0
51100.36678900087,0.00010261100191771975,0.00130466098067263,0,0
51200.40013338212,0.0001032101088370217,0.0013071496879227223,0,0
51300.43347776336,0.0001038097106390661,0.0013096959927788715,0,0
51400.46682235777,0.00010439979345997761,0.00131227769587122,0,0
51500.50016673902,0.00010496757999433998,0.0013147682212337132,0,0
51600.53351112026,0.00010550681129865716,0.0013171933632577298,0,0
51700.56685571467,0.00010601866705517134,0.0013196418790692517,0,0
51800.60020009591,0.00010650794388748707,0.001322064428032559,0,0
51900.63354447716,0.00010696360524508602,0.00132446626184932,0,0
52000.6668888584,0.00010740911673794975,0.0013268848245600953,0,0
52100.700233452815,0.00010783365442672506,0.0013293216618848608,0,0
52200.73357783406,0.00010824438126649991,0.0013317711231336342,0,0
52300.766922215305,0.00010864116803387733,0.0013341782700235117,0,0
52400.80026680971,0.00010901872504397477,0.0013366129543423123,0,0
52500.83361119096,0.00010938833119378136,0.0013390669682807673,0,0
52600.8669555722,0.00010973441714509466,0.001341456729552454,0,0
52700.900300166606,0.00011008269022027813,0.0013439502095384174,0,0
52800.933644547855,0.00011040039656370715,0.0013463772187154747,0,0
52900.966988929096,0.0001107029229080022,0.0013487697575837127,0,0
53001.00033352351,0.00011097595544525746,0.001351240051790564,0,0
53101.03367790475,0.00011122877679318749,0.0013536260336472108,0,0
53201.067022286,0.00011147167594302596,0.0013561728568769733,0,0
53301.100366880404,0.0001116950027298764,0.0013586343546390773,0,0
53401.13371126165,0.00011190222666048027,0.0013611220403780629,0,0
53501.167055642894,0.00011211330718982824,0.001363652004505099,0,0
53601.2004002373,0.00011233563024435158,0.0013662446679824206,0,0
53701.23374461855,0.00011255299739770866,0.001368869878826841,0,0
53801.2670889998,0.0001127727203519935,0.0013714338832376387,0,0
53901.30043338104,0.00011300319375549093,0.0013740286950837857,0,0
54001.333777975444,0.00011324940934336315,0.0013766862413177516,0,0
54101.36712235669,0.00011350903699651108,0.0013793302465203215,0,0
54201.400466737934,0.0001137932462528907,0.0013820391981993183,0,0
54301.43381133235,0.00011409623921301577,0.0013846923143640195,0,0
54401.46715571359,0.00011441687538692252,0.0013873480438944485,0,0
54501.50050009484,0.00011473815153806927,0.0013900209538915595,0,0
54601.53384468924,0.00011507142108885096,0.0013926951531140085,0,0
54701.56718907049,0.00011541233444219628,0.0013953541358355027,0,0
54801.60053345173,0.00011575371007598495,0.0013979831229481126,0,0
54901.63387804614,0.00011607248916417176,0.0014005969863395053,0,0
55001.667222427386,0.0001163965939854062,0.0014032839092703322,0,0
55101.700566808635,0.00011673936664348327,0.001405934437759345,0,0
55201.73391140304,0.00011707316088758029,0.0014085544189403128,0,0
55301.76725578428,0.00011743198762127755,0.0014112578196897485,0,0
55401.80060016553,0.00011779871163875461,0.0014138950985160019,0,0
55501.83394454677,0.00011818188474127221,0.0014166047941968852,0,0
55601.867289141184,0.00011856568443579726,0.0014192366692066022,0,0
55701.900633522426,0.00011895866148148288,0.0014218902598244943,0,0
55801.933977903675,0.0001193453076618251,0.0014245709134721742,0,0
55901.96732249808,0.00011973561368442494,0.0014271748940931348,0,0
56002.00066687933,0.00012011473285762904,0.0014298034585678143,0,0
56102.03401126057,0.00012049458369643712,0.001432478426628249,0,0
56202.067355854975,0.00012085958254204899,0.0014351066897853463,0,0
56302.100700236224,0.00012125066538710901,0.0014377904324350073,0,0
56402.13404461747,0.00012164907312448535,0.0014405279390080842,0,0
56502.16738921188,0.00012206677574778848,0.0014431505717090558,0,0
56602.20073359312,0.00012249079025680203,0.0014457663382448618,0,0
56702.23407797437,0.0001229210630189067,0.0014484679921078656,0,0
56802.26742256877,0.00012333347870663024,0.001451097209957334,0,0
56902.30076695002,0.00012374705555061845,0.0014537423409912518,0,0
57002.33411133126,0.00012418141393223496,0.0014563950073506941,0,0
57102.36745571251,0.0001246126275929831,0.0014590709793063073,0,0
57202.40080030692,0.00012504399493141853,0.0014617473985402561,0,0
57302.434144688166,0.00012546729408658346,0.0014643418772725644,0,0
57402.46748906941,0.00012590678600937045,0.0014670036032982212,0,0
57502.50083366381,0.00012636580808123395,0.0014697283352385492,0,0
57602.53417804506,0.0001268422220246179,0.001472390141791139,0,0
57702.56752242631,0.00012732054813762814,0.0014750337870662973,0,0
57802.600867020716,0.00012780761502918558,0.0014777208389954038,0,0
57902.63421140196,0.000128304441229135,0.001480378579400088,0,0
58002.667555783206,0.0001288477045908222,0.0014830828147059775,0,0
58102.70090037761,0.0001294071028123393,0.0014856542742444894,0,0
58202.73424475886,0.00013000035637191295,0.0014883018464623666,0,0
58302.7675891401,0.00013058040577933866,0.0014908263013564626,0,0
58402.800933734514,0.00013115233759541337,0.0014933107186073655,0,0
58502.834278115755,0.00013171919760578547,0.001495771667180809,0,0
58602.867622497004,0.0001322560301453291,0.0014981988498691265,0,0
58702.90096709141,0.00013270423799414152,0.0015005400360409058,0,0
58802.93431147265,0.00013307239367110285,0.0015029385342059877,0,0
58902.9676558539,0.0001333539840090932,0.0015052705042264015,0,0
59003.00100023515,0.0001336084588800555,0.0015077933414513042,0,0
59103.03434482955,0.0001338588898164948,0.0015103394906139753,0,0
59203.067689210795,0.0001341166273963928,0.0015129519289112303,0,0
59303.101033592044,0.0001344003373675872,0.001515580001905926,0,0
59403.13437818645,0.00013471844592418504,0.0015182457760030607,0,0
59503.1677225677,0.00013505404743537348,0.0015208790340093263,0,0
59603.20106694894,0.00013540665717468275,0.001523547676264422,0,0
59703.23441154335,0.00013577480290132961,0.001526183786844247,0,0
59803.26775592459,0.00013616269900319883,0.0015288837109741975,0,0
59903.30110030584,0.00013655723312393318,0.0015315706751965713,0,0
60003.33444490025,0.00013696425296522556,0.001534250189776836,0,0
60103.36778928149,0.00013738120669496312,0.0015369358985414434,0,0
60203.40113366274,0.0001377976948537153,0.0015395567607200517,0,0
60303.43447825714,0.00013823321659281788,0.0015422879029133856,0,0
60403.46782263839,0.00013866003279002181,0.0015449097724624604,0,0
60503.50116701963,0.00013910006977546196,0.0015476012340312798,0,0
60603.53451140088,0.00013953576012114472,0.001550203724556041,0,0
60703.56785599529,0.00013998402026624268,0.0015529142955970573,0,0
60803.601200376535,0.0001404330505233942,0.0015555810363376149,0,0
60903.63454475778,0.00014088616146595514,0.0015582381123504553,0,0
61003.66788935219,0.0001413445329787045,0.001560904501984909,0,0
61103.70123373343,0.00014180262857105378,0.0015635697706482187,0,0
61203.73457811468,0.00014226772081508496,0.0015661936033898223,0,0
61303.767922709085,0.0001427354127535964,0.0015688604535243097,0,0
61403.801267090326,0.00014321918105432492,0.0015715599683680341,0,0
61503.834611471575,0.00014369460959771745,0.0015741932522484018,0,0
61603.86795606598,0.0001441863705525209,0.0015768970572787998,0,0
61703.90130044723,0.00014468036357456583,0.0015795026270693968,0,0
61803.93464482847,0.00014517957086519835,0.0015821595096867703,0,0
61903.96798942288,0.00014569381471634418,0.0015848366339417594,0,0
62004.001333804124,0.00014622570496370277,0.0015875083806203866,0,0
62104.03467818537,0.000146765862133765,0.0015901606311843645,0,0
62204.06802277978,0.00014731916015426686,0.0015927642833765228,0,0
62304.10136716103,0.00014790840438851202,0.001595404124702294,0,0
62404.13471154227,0.00014852282331591292,0.0015980516335452482,0,0
62504.16805592352,0.00014914590824259983,0.0016005639168009895,0,0
62604.20140051792,0.000149767150033987,0.0016030878799981952,0,0
62704.234744899164,0.00015036779399154373,0.0016054957651361293,0,0
62804.26808928041,0.00015090914257799348,0.0016079082953329342,0,0
62904.30143387482,0.00015134028010604055,0.0016102311524363241,0,0
63004.33477825607,0.0001516736358219474,0.0016125957383381355,0,0
63104.36812263731,0.00015193743820609833,0.0016150256318747452,0,0
63204.40146723172,0.0001521879222893417,0.0016175937798942725,0,0
63304.43481161296,0.0001524524877364374,0.0016202083376509328,0,0
63404.46815599421,0.00015274557251321037,0.0016228045377561688,0,0
63504.501500588616,0.00015308336609537207,0.0016255426103373727,0,0
63604.534844969865,0.0001534471412979487,0.0016282041241494115,0,0
63704.56818935111,0.00015383668010080558,0.001630898469774662,0,0
63804.60153394552,0.00015424456401763543,0.0016335920666124052,0,0
63904.63487832676,0.0001546691559822218,0.0016363218438650905,0,0
64004.668222708,0.00015510174652851155,0.001638977542838434,0,0
64104.70156708925,0.00015555105693060192,0.0016416681778263782,0,0
64204.734911683656,0.00015601472010502235,0.0016443448823774862,0,0
64304.768256064905,0.0001564759575587733,0.001647072373603241,0,0
64404.801600446146,0.00015695301738102445,0.0016497477409366372,0,0
64504.83494504056,0.00015744071489685475,0.0016524464740970133,0,0
64604.8682894218,0.00015791891819512188,0.0016550698989126734,0,0
64704.90163380305,0.0001584064633695986,0.0016577570773528229,0,0
64804.934978397454,0.00015889978939145143,0.0016604058753889553,0,0
64904.9683227787,0.00015939155698755264,0.0016630286171622607,0,0
65005.001667159944,0.00015989359123902484,0.0016656770527091625,0,0
65105.03501175436,0.00016039423398123644,0.0016683935135193538,0,0
65205.0683561356,0.00016090329978644263,0.0016710730269979817,0,0
65305.10170051684,0.00016139194017291517,0.0016736143183742947,0,0
65405.13504511125,0.00016188044152731535,0.0016762496276883174,0,0
65505.16838949249,0.00016237203106054792,0.0016789222603664283,0,0
65605.20173387374,0.00016286046270116462,0.001681568202496036,0,0
65705.23507825499,0.00016335088732572406,0.0016842832732852035,0,0
65805.26842284939,0.00016384347533284846,0.00168692467426837,0,0
65905.30176723065,0.0001643442248750108,0.0016895676569409893,0,0
66005.33511161189,0.00016484491071654906,0.0016922313128131,0,0
66105.3684562063,0.00016533817800677678,0.001694840024684742,0,0
66205.40180058754,0.00016583081677542152,0.001697450227056973,0,0
66305.43514496878,0.00016632775859662922,0.001700140731244332,0,0
66405.4684895632,0.00016683400020877338,0.0017028193562807156,0,0
66505.50183394444,0.00016733868099209177,0.0017054124636760382,0,0
66605.53517832568,0.00016783800377397572,0.0017080523949542397,0,0
66705.56852292009,0.0001683476897762204,0.0017107230202422794,0,0
66805.60186730133,0.0001688507506993879,0.0017133550023311198,0,0
66905.63521168257,0.00016935185273393786,0.0017159739343820494,0,0
67005.66855627699,0.0001698614045362598,0.00171863754635837,0,0
67105.70190065823,0.00017036709884963273,0.0017212501366172218,0,0
67205.73524503948,0.00017089167782118292,0.0017239726654175187,0,0
67305.76858963388,0.00017139732171242184,0.0017265928131796964,0,0
67405.80193401514,0.00017192152365586884,0.001729320666436921,0,0
67505.83527839638,0.00017242926020730965,0.001731922396143751,0,0
67605.86862277762,0.00017295091263345015,0.001734617871038689,0,0
67705.90196737203,0.0001734521427815491,0.0017371509676502108,0,0
67805.93531175327,0.0001739814571763169,0.0017399057335097075,0,0
67905.96865613452,0.00017449686514104133,0.0017425429307929216,0,0
68006.00200072893,0.0001750222797063631,0.0017452367971081987,0,0
68106.03534511017,0.00017554015803132277,0.0017478804379432806,0,0
68206.06868949141,0.00017605950548442778,0.0017504999453121961,0,0
68306.10203408582,0.000176585511697966,0.0017531614843736202,0,0
68406.13537846706,0.00017710771059357077,0.0017557923774990053,0,0
68506.16872284832,0.00017763032177924446,0.0017584226828845908,0,0
68606.20206744272,0.00017815718985478234,0.0017610984642665699,0,0
68706.23541182397,0.00017868816835787778,0.0017638330123118655,0,0
68806.26875620522,0.00017921589342152652,0.0017664707462880277,0,0
68906.30210079963,0.0001797469183630722,0.0017690873663900274,0,0
69006.33544518087,0.00018028445595581565,0.0017718152511506512,0,0
69106.36878956211,0.00018081029682526158,0.0017744397539989267,0,0
69206.40213394335,0.0001813377552058397,0.001777076500453933,0,0
69306.43547853777,0.00018187023859101957,0.001779700305493812,0,0
69406.468822919,0.00018240370545208939,0.0017823717981869333,0,0
69506.50216730025,0.00018294446372597216,0.0017850857886341528,0,0
69606.53551189466,0.00018348521628365865,0.0017877415421453735,0,0
69706.5688562759,0.00018401423408625147,0.001790361129358344,0,0
69806.60220065716,0.00018455469787749158,0.0017930396132476488,0,0
69906.63554525156,0.00018509358512960335,0.001795710696463639,0,0
70006.66888963281,0.00018563564965561684,0.0017983755511057355,0,0
70106.70223401405,0.00018618129568380722,0.001801079027517111,0,0
70206.73557860847,0.0001867205113701951,0.0018037196126401787,0,0
70306.76892298971,0.00018725815084794586,0.0018063744035785596,0,0
70406.80226737095,0.00018781347597371712,0.0018090718263710616,0,0
70506.83561196536,0.0001883729657898564,0.0018117654108937339,0,0
70606.8689563466,0.00018889926386810962,0.0018143959170249639,0,0
70706.90230072784,0.00018944641786638946,0.0018170517251972264,0,0
70806.93564510909,0.00018999777950725087,0.001819710345613552,0,0
70906.9689897035,0.00019054951542212277,0.0018224413737381831,0,0
71007.00233408474,0.0001910925512020129,0.0018250817899816561,0,0
71107.035678466,0.00019164589620151973,0.00182773635461915,0,0
71207.0690230604,0.00019220217461832524,0.0018304227940414656,0,0
71307.10236744165,0.0001927503875553186,0.0018330791542296957,0,0
71407.13571182289,0.00019329893587990236,0.0018357360123729355,0,0
71507.1690564173,0.00019385434569624732,0.001838388507017265,0,0
71607.20240079855,0.0001944158958898326,0.0018410916730721603,0,0
71707.23574517979,0.00019496960066142695,0.001843738374023752,0,0
71807.2690897742,0.00019552717473480402,0.0018464178657317048,0,0
71907.30243415544,0.00019609074764558504,0.0018491142397273966,0,0
72007.33577853668,0.00019665004085440358,0.001851795862769855,0,0
72107.3691231311,0.0001972135765024817,0.00185446972663482,0,0
72207.40246751234,0.00019777835581601992,0.0018572040787905699,0,0
72307.43581189358,0.00019834818347244385,0.001859890147745339,0,0
72407.46915648799,0.0001989117474490167,0.0018625485404820204,0,0
72507.50250086923,0.0001994797141297786,0.0018652324611507583,0,0
72607.53584525049,0.00020005819466779642,0.0018679782886137546,0,0
72707.56918963173,0.00020062948421029945,0.0018706160437954044,0,0
72807.60253422614,0.00020119866939608872,0.001873258409311093,0,0
72907.63587860738,0.00020177422437880175,0.0018759875195916403,0,0
73007.66922298862,0.00020235768186609637,0.001878716206531536,0,0
73107.70256758304,0.0002029335307108404,0.001881373546240026,0,0
73207.73591196428,0.00020351477026811314,0.0018840997261618572,0,0
73307.76925634552,0.00020409127842964386,0.001886776438646805,0,0
73407.80260093993,0.00020469298537528568,0.0018896093917058062,0,0
73507.83594532117,0.00020526626804542327,0.0018922057799857074,0,0
73607.86928970242,0.00020585610042933182,0.001894913706978693,0,0
73707.90263429683,0.00020643995150760352,0.001897589793675623,0,0
73807.93597867807,0.00020702656862207932,0.001900250033287696,0,0
73907.96932305933,0.00020762109816955529,0.0019029806571245224,0,0
74008.00266765372,0.00020821824239924966,0.0019057136203328307,0,0
74108.03601203498,0.00020880388705557477,0.0019083963068690325,0,0
74208.06935641622,0.0002093948998497638,0.0019110957500823988,0,0
74308.10270079746,0.00020998617745834598,0.0019138416373553927,0,0
74408.13604539188,0.00021057388532489811,0.001916540200673439,0,0
74508.16938977312,0.00021115472472858435,0.0019192755164427677,0,0
74608.20273415436,0.00021175106264684156,0.0019220248098530545,0,0
74708.23607874877,0.00021235431381464345,0.001924713117935122,0,0
74808.26942313001,0.0002129725877683897,0.0019274975236328895,0,0
74908.30276751125,0.00021358256051183373,0.0019301924183585328,0,0
75008.33611210567,0.0002141939175388939,0.0019328937889311157,0,0
75108.36945648691,0.00021482471123462479,0.001935675396636309,0,0
75208.40280086816,0.0002154512704317782,0.0019384268829441393,0,0
75308.43614546256,0.00021608096751759737,0.0019411649298079333,0,0
75408.46948984382,0.00021671233802776199,0.001943897283106167,0,0
75508.50283422506,0.00021733996489461596,0.0019466121746288764,0,0
75608.53617881946,0.0002179794263912542,0.0019493693166832715,0,0
75708.56952320071,0.00021862521413114984,0.0019521478778925685,0,0
75808.60286758195,0.000219270765329723,0.001954902984268768,0,0
75908.63621217637,0.00021991208661006564,0.001957635482625234,0,0
76008.66955655761,0.00022056520398479096,0.001960393909208983,0,0
76108.70290093885,0.00022121907633808707,0.0019631286144975745,0,0
76208.73624532009,0.00022188243718317062,0.0019659372620598596,0,0
76308.7695899145,0.00022255899277953765,0.0019687173650738726,0,0
76408.80293429575,0.00022322205751210302,0.0019714573928775003,0,0
76508.836278677,0.00022390302448480097,0.001974286329752969,0,0
76608.8696232714,0.00022458041463625322,0.0019770971099395637,0,0
76708.90296765266,0.0002252724454410668,0.001979869946079217,0,0
76808.9363120339,0.00022595448204656892,0.0019826185641962433,0,0
76908.9696566283,0.0002266577524972481,0.0019854086701816096,0,0
77009.00300100955,0.00022736746285139205,0.00198815901920654,0,0
77109.03634539079,0.0002280773118975379,0.001990977396160586,0,0
77209.0696899852,0.00022879973348487523,0.0019938064292951856,0,0
77309.10303436645,0.00022953301861165508,0.0019966526262644854,0,0
77409.13637874769,0.00023027250261465647,0.0019994277029471426,0,0
77509.1697233421,0.0002310147631187299,0.002002244888382848,0,0
77609.20306772334,0.00023177458899258303,0.0020050496850550583,0,0
77709.23641210458,0.00023254604772146925,0.0020078870591259514,0,0
77809.26975648584,0.00023332976304545598,0.002010714426242491,0,0
77909.30310108024,0.0002341239378003533,0.0020135069362045383,0,0
78009.3364454615,0.00023493522100771208,0.0020163770567548775,0,0
78109.36978984273,0.00023576112465099707,0.0020192011527996197,0,0
78209.40313443713,0.00023659949145112328,0.002022044870464212,0,0
78309.43647881839,0.00023745419579177313,0.0020248211063448205,0,0
78409.46982319963,0.00023832489755447507,0.0020276144215235097,0,0
78509.50316779404,0.00023922173462964834,0.0020304838093900867,0,0
78609.53651217528,0.00024012644295370148,0.0020332877096273672,0,0
78709.56985655653,0.00024104355426468428,0.002036058869842438,0,0
78809.60320115094,0.00024199298872335632,0.002038836096523112,0,0
78909.63654553218,0.00024295536692017325,0.0020416367010009768,0,0
79009.66988991342,0.00024391788149760689,0.0020443442388546934,0,0
79109.70323450783,0.00024488431857699867,0.0020470140090513536,0,0
79209.73657888907,0.0002458590550342802,0.002049732161735233,0,0
79309.76992327033,0.0002468215685805541,0.0020523763236480713,0,0
79409.80326765157,0.00024777374950255547,0.002055069749380365,0,0
79509.83661224597,0.00024868194066247435,0.002057662336145429,0,0
79609.86995662723,0.00024956909527631033,0.002060207270426159,0,0
79709.90330100847,0.00025043716180681486,0.002062948403637741,0,0
79809.93664560288,0.00025126699723112644,0.00206557724881502,0,0
