Frequency (Hz),Impedance (ohms),Phase (Radians),Temperature (C),Humidity (%)
49999.999999954525,0.00010175829815136056,0.0012832860318897296,0,0
50100.03334454893,9.751700069479281e-05,0.001277196363850304,0,0
50200.06668893018,9.789099451862712e-05,0.001279915916858593,0,0
50300.10003331142,9.82778297699977e-05,0.0012826476127203495,0,0
50400.13337769267,9.867063349532808e-05,0.0012853906476476386,0,0
50500.166722287075,9.907603512687245e-05,0.0012881918011615765,0,0
50600.20006666832,9.948870923059889e-05,0.0012909168471806863,0,0
50700.233411049565,9.990817855474786e-05,0.001293670956271531,0,0
50800.26675564398,0.0001003364999008924,0.0012963792066298932,0,0
50900.30010002522,0.00010077788062765179,0.0012991433619145816,0,0
51000.33344440647,0.00010121937183629299,0.0013018346151788844,0,0
51100.36678900087,0.00010167133473343891,0.0013045665515198028,0,0
51200.40013338212,0.00010212654595802489,0.0013072255168299575,0,0
51300.43347776336,0.00010260942569129212,0.0013099514149311298,0,0
51400.46682235777,0.00010309744758381606,0.0013126604204569152,0,0
51500.50016673902,0.00010360096322308045,0.0013153248583620237,0,0
51600.53351112026,0.00010409926655822927,0.0013179879459207806,0,0
51700.56685571467,0.00010461147589782015,0.001320643820506021,0,0
51800.60020009591,0.00010513056582444289,0.0013232993643859706,0,0
51900.63354447716,0.00010564579341833481,0.0013259033906413914,0,0
52000.6668888584,0.00010615301576938235,0.0013285024634863037,0,0
52100.700233452815,0.00010666150468283491,0.0013311158634135062,0,0
52200.73357783406,0.00010718510977847537,0.0013337342378301194,0,0
52300.766922215305,0.00010769667531383485,0.0013362715556015149,0,0
52400.80026680971,0.00010821118519391154,0.0013388569484465939,0,0
52500.83361119096,0.00010871661721776145,0.00134137820640154,0,0
52600.8669555722,0.00010924556979864989,0.0013439516679923155,0,0
52700.900300166606,0.0001097652114264866,0.0013464605819369173,0,0
52800.933644547855,0.00011029779414853927,0.0013490388102045594,0,0
52900.966988929096,0.00011081627937220418,0.0013515077913250249,0,0
53001.00033352351,0.00011131543969820092,0.0013540097904627367,0,0
53101.03367790475,0.0001117985589992134,0.0013564399209621647,0,0
53201.067022286,0.00011227153802178595,0.0013589047080428715,0,0
53301.100366880404,0.00011273013280421019,0.001361343410555521,0,0
53401.13371126165,0.00011317717068434565,0.0013637680747181145,0,0
53501.167055642894,0.00011359740165915432,0.0013661924393585888,0,0
53601.2004002373,0.00011400692283310562,0.0013685992465651757,0,0
53701.23374461855,0.00011438017593806881,0.0013709912146656674,0,0
53801.2670889998,0.00011473998152283301,0.0013734031266730135,0,0
53901.30043338104,0.0001150649784832962,0.001375830531050396,0,0
54001.333777975444,0.00011539081629528209,0.0013782505293851804,0,0
54101.36712235669,0.0001156890002195687,0.0013807196500474816,0,0
54201.400466737934,0.0001159459519579517,0.001383103561112449,0,0
54301.43381133235,0.00011619994565915823,0.0013856218232454357,0,0
54401.46715571359,0.00011642799279116764,0.0013880907151004541,0,0
54501.50050009484,0.00011666161881379227,0.0013905918018568696,0,0
54601.53384468924,0.00011692420026863003,0.001393167786145905,0,0
54701.56718907049,0.00011718323469295185,0.0013957597726125062,0,0
54801.60053345173,0.00011742668250115955,0.0013983156986064414,0,0
54901.63387804614,0.0001176790914084864,0.0014009035140677628,0,0
55001.667222427386,0.00011793631389915477,0.001403504119612806,0,0
55101.700566808635,0.00011821235217241899,0.0014061515145772784,0,0
55201.73391140304,0.0001184937717354516,0.0014087782565706426,0,0
55301.76725578428,0.00011878649970703047,0.0014114503683023726,0,0
55401.80060016553,0.00011909211090129817,0.0014140916709483508,0,0
55501.83394454677,0.00011941145503487671,0.0014167103811501016,0,0
55601.867289141184,0.00011973991420253834,0.0014193825580378482,0,0
55701.900633522426,0.00012008274627375016,0.0014220799547461844,0,0
55801.933977903675,0.00012044259988783794,0.0014247758259102407,0,0
55901.96732249808,0.00012080331870578594,0.0014274194430936539,0,0
56002.00066687933,0.00012117180041258073,0.00143007956668829,0,0
56102.03401126057,0.0001215483314475459,0.001432756004619962,0,0
56202.067355854975,0.000121922153676695,0.001435348782497162,0,0
56302.100700236224,0.00012229324195396442,0.001437948882073299,0,0
56402.13404461747,0.0001226658376121869,0.0014406207280149002,0,0
56502.16738921188,0.00012305148347048725,0.0014433242270064145,0,0
56602.20073359312,0.0001234426665583626,0.0014459437330526816,0,0
56702.23407797437,0.0001238540343928522,0.0014486369072730214,0,0
56802.26742256877,0.00012426549967843085,0.0014513083577385461,0,0
56902.30076695002,0.00012467460725334943,0.0014539646504333728,0,0
57002.33411133126,0.00012507019910510206,0.0014565754676429384,0,0
57102.36745571251,0.00012546179407044557,0.0014592348070998338,0,0
57202.40080030692,0.00012585629107695858,0.0014619077240180995,0,0
57302.434144688166,0.0001262557769085328,0.0014645535097474022,0,0
57402.46748906941,0.00012667755529682787,0.001467263049743703,0,0
57502.50083366381,0.0001271148299054149,0.0014699131625364676,0,0
57602.53417804506,0.00012753446507520892,0.0014725569059880165,0,0
57702.56752242631,0.00012795614220868787,0.0014752520669204941,0,0
57802.600867020716,0.00012838704849011287,0.0014779751075516385,0,0
57902.63421140196,0.0001288413191212294,0.0014806735656038154,0,0
58002.667555783206,0.00012929849255918733,0.0014833078698313865,0,0
58102.70090037761,0.00012977743974028195,0.0014859828960062564,0,0
58202.73424475886,0.0001302665994822619,0.0014886315450223682,0,0
58302.7675891401,0.00013076709860794871,0.0014913184442146268,0,0
58402.800933734514,0.0001312880707875666,0.0014940144865970325,0,0
58502.834278115755,0.0001318212032142016,0.0014966900657218663,0,0
58602.867622497004,0.00013238652805294373,0.0014993893974379288,0,0
58702.90096709141,0.00013297251208328008,0.001502052767380479,0,0
58802.93431147265,0.00013360173586612691,0.0015046871521979342,0,0
58902.9676558539,0.0001342634148617363,0.0015072499288561118,0,0
59003.00100023515,0.00013496565859145437,0.0015097797013742488,0,0
59103.03434482955,0.00013568662133692588,0.0015122221477053763,0,0
59203.067689210795,0.0001363598907485396,0.001514534298041174,0,0
59303.101033592044,0.00013690363722734854,0.0015166811995872605,0,0
59403.13437818645,0.0001372876565458824,0.0015188615853004516,0,0
59503.1677225677,0.00013751500468916982,0.0015210720472767297,0,0
59603.20106694894,0.00013764177425938662,0.001523404286307337,0,0
59703.23441154335,0.00013775602391724137,0.0015259120512595265,0,0
59803.26775592459,0.0001378961963215626,0.0015285158906779843,0,0
59903.30110030584,0.00013807737768316744,0.0015311563652350077,0,0
60003.33444490025,0.00013830960287298694,0.0015338325572067026,0,0
60103.36778928149,0.00013858860200662923,0.0015365711278537643,0,0
60203.40113366274,0.0001388951936619962,0.0015392320772793409,0,0
60303.43447825714,0.0001392358293815878,0.0015419103358058604,0,0
60403.46782263839,0.0001395991632122453,0.0015446230496377236,0,0
60503.50116701963,0.00013998010361185632,0.0015473128023402749,0,0
60603.53451140088,0.00014037999614662576,0.0015500481203484582,0,0
60703.56785599529,0.00014078142838068512,0.001552689419256397,0,0
60803.601200376535,0.00014119967305390355,0.001555357884505785,0,0
60903.63454475778,0.00014162586035250467,0.0015580769647496038,0,0
61003.66788935219,0.000142049754146728,0.0015606888274592792,0,0
61103.70123373343,0.0001424906911764982,0.0015633940150284642,0,0
61203.73457811468,0.00014293419684142567,0.0015660797656717022,0,0
61303.767922709085,0.0001433813130903802,0.0015687769455634934,0,0
61403.801267090326,0.0001438377964402963,0.001571465225407387,0,0
61503.834611471575,0.00014429509632018865,0.0015741173959665123,0,0
61603.86795606598,0.00014475360537951108,0.0015767171666718237,0,0
61703.90130044723,0.00014521440860214068,0.001579375371850346,0,0
61803.93464482847,0.00014568752224339488,0.0015820800726998512,0,0
61903.96798942288,0.00014616810106873586,0.001584775340135317,0,0
62004.001333804124,0.0001466508894523412,0.001587459530527233,0,0
62104.03467818537,0.00014713201964087832,0.0015901252263958194,0,0
62204.06802277978,0.00014762617128839784,0.0015927855519554275,0,0
62304.10136716103,0.00014813063786762496,0.0015954680818662074,0,0
62404.13471154227,0.00014864577427470572,0.001598133501163675,0,0
62504.16805592352,0.00014916979716175798,0.0016007441251885215,0,0
62604.20140051792,0.0001496933785585165,0.0016033990102682905,0,0
62704.234744899164,0.0001502315285389917,0.0016060385318661398,0,0
62804.26808928041,0.00015078734495247367,0.0016086669128292945,0,0
62904.30143387482,0.0001513510099190591,0.0016112505111479543,0,0
63004.33477825607,0.00015192378454565456,0.0016138300410045864,0,0
63104.36812263731,0.00015246771198922202,0.0016163201887813153,0,0
63204.40146723172,0.00015298483051372487,0.001618830025938838,0,0
63304.43481161296,0.00015344034831432844,0.0016212689091781285,0,0
63404.46815599421,0.0001538507744667122,0.0016238081430350938,0,0
63504.501500588616,0.00015421917751662006,0.0016263374953765352,0,0
63604.534844969865,0.00015458575207410611,0.0016289223846571504,0,0
63704.56818935111,0.00015495950711502606,0.0016315461437163403,0,0
63804.60153394552,0.00015534575514799292,0.0016341308211323033,0,0
63904.63487832676,0.00015576390717216508,0.001636791092329201,0,0
64004.668222708,0.00015619705811233803,0.0016394918640785573,0,0
64104.70156708925,0.00015663544841379098,0.0016421324171104583,0,0
64204.734911683656,0.00015707351290368513,0.001644731510656568,0,0
64304.768256064905,0.00015751551772974148,0.0016473710527332344,0,0
64404.801600446146,0.00015795234398640958,0.0016500551054588347,0,0
64504.83494504056,0.00015838906508531877,0.0016526513263227453,0,0
64604.8682894218,0.00015883772265317496,0.00165539721833141,0,0
64704.90163380305,0.00015928883651794546,0.0016580567763243618,0,0
64804.934978397454,0.0001597455859241623,0.001660695749118097,0,0
64904.9683227787,0.00016021512422351205,0.0016633921608144098,0,0
65005.001667159944,0.00016068715651560713,0.001666035852252267,0,0
65105.03501175436,0.00016116716991785223,0.0016687063345567099,0,0
65205.0683561356,0.00016165366064706295,0.0016713651387719435,0,0
65305.10170051684,0.0001621385199797247,0.001674031782795609,0,0
65405.13504511125,0.0001626245486618202,0.0016766830952205103,0,0
65505.16838949249,0.00016312204657915799,0.0016793866854015722,0,0
65605.20173387374,0.00016362668843089594,0.0016820878843343099,0,0
65705.23507825499,0.0001641240340390397,0.0016847334454774478,0,0
65805.26842284939,0.00016461598407581948,0.0016873758791762599,0,0
65905.30176723065,0.00016512148699446253,0.001690045943519598,0,0
66005.33511161189,0.00016561929029722873,0.001692635688147232,0,0
66105.3684562063,0.00016613787418309924,0.0016953274189130442,0,0
66205.40180058754,0.0001666434445041407,0.0016980116144511793,0,0
66305.43514496878,0.00016715503656637346,0.0017006335951670667,0,0
66405.4684895632,0.00016766819621778865,0.001703265385254935,0,0
66505.50183394444,0.00016818682454000373,0.0017059158253235462,0,0
66605.53517832568,0.00016869903162637046,0.001708563488194522,0,0
66705.56852292009,0.00016920989801152576,0.0017111791906738955,0,0
66805.60186730133,0.00016972523653000708,0.0017138522897762476,0,0
66905.63521168257,0.0001702390138399058,0.001716506406863075,0,0
67005.66855627699,0.00017075218204440384,0.0017191632908578366,0,0
67105.70190065823,0.00017126591301643663,0.0017218246940395121,0,0
67205.73524503948,0.00017177425094744937,0.001724446310879201,0,0
67305.76858963388,0.0001722935435944522,0.0017271210496287476,0,0
67405.80193401514,0.00017281064959724174,0.0017297906454889465,0,0
67505.83527839638,0.00017332368866524212,0.0017324242109710143,0,0
67605.86862277762,0.00017385377191647095,0.0017351514502838461,0,0
67705.90196737203,0.00017436797912484135,0.0017377829665800055,0,0
67805.93531175327,0.00017488793634022376,0.0017404185022065477,0,0
67905.96865613452,0.0001754126606943393,0.0017430925633131304,0,0
68006.00200072893,0.00017592880300075622,0.001745736647105531,0,0
68106.03534511017,0.00017645309686178977,0.001748383603120317,0,0
68206.06868949141,0.00017697938785261647,0.0017510673399928837,0,0
68306.10203408582,0.00017749927017925813,0.0017537254948717523,0,0
68406.13537846706,0.00017801960749843235,0.0017563653902324793,0,0
68506.16872284832,0.00017854912534298722,0.0017589949188955047,0,0
68606.20206744272,0.00017907435760790101,0.0017616804664844503,0,0
68706.23541182397,0.00017960712956930668,0.0017643101730837585,0,0
68806.26875620522,0.00018013392785579392,0.001766974703112412,0,0
68906.30210079963,0.00018066518954735719,0.0017696370103043111,0,0
69006.33544518087,0.00018119469381782744,0.0017722591031757479,0,0
69106.36878956211,0.00018172943924572513,0.0017748877573428436,0,0
69206.40213394335,0.00018226583018823245,0.0017776127502596255,0,0
69306.43547853777,0.00018279861484788703,0.0017802700937451568,0,0
69406.468822919,0.00018333240201917275,0.0017829685178169618,0,0
69506.50216730025,0.00018386941926425124,0.0017855972890627615,0,0
69606.53551189466,0.00018440617134733934,0.0017882299976675659,0,0
69706.5688562759,0.00018494732275854374,0.00179091539159593,0,0
69806.60220065716,0.00018549284189661809,0.0017935967493313382,0,0
69906.63554525156,0.0001860343973787209,0.0017962661213313572,0,0
70006.66888963281,0.00018657270316489036,0.0017989091460837757,0,0
70106.70223401405,0.00018711919576285248,0.0018016075907096648,0,0
70206.73557860847,0.000187658907722372,0.0018042411322047828,0,0
70306.76892298971,0.00018821223758429072,0.0018069703974897715,0,0
70406.80226737095,0.00018875309249295636,0.001809611742465299,0,0
70506.83561196536,0.00018930040747804593,0.0018122723856289274,0,0
70606.8689563466,0.00018984504480148897,0.0018149491643468958,0,0
70706.90230072784,0.00019040151934253697,0.0018176566473862995,0,0
70806.93564510909,0.00019094852277508323,0.0018202923889019678,0,0
70906.9689897035,0.0001915085923253366,0.001823013273491145,0,0
71007.00233408474,0.00019205996838806417,0.0018256895419540863,0,0
71107.035678466,0.00019260447813851302,0.0018283048612970873,0,0
71207.0690230604,0.0001931606973529317,0.0018310067809550095,0,0
71307.10236744165,0.00019370999387862344,0.001833622347111243,0,0
71407.13571182289,0.00019427471706614776,0.0018363550211562421,0,0
71507.1690564173,0.00019482674944524056,0.0018390179337435563,0,0
71607.20240079855,0.0001953830606005102,0.0018416841544423076,0,0
71707.23574517979,0.0001959416447060731,0.001844369368722404,0,0
71807.2690897742,0.00019651230122944005,0.0018471333675178355,0,0
71907.30243415544,0.00019706360673949776,0.0018497259360210415,0,0
72007.33577853668,0.00019762169372004198,0.0018523576694888697,0,0
72107.3691231311,0.00019819233532204273,0.0018550734382616009,0,0
72207.40246751234,0.00019875532173630023,0.001857736029935194,0,0
72307.43581189358,0.00019932065695506374,0.0018604075515432094,0,0
72407.46915648799,0.00019990606563593833,0.0018631947473106596,0,0
72507.50250086923,0.0002004755955533899,0.0018658966230481596,0,0
72607.53584525049,0.00020104627691285677,0.0018685773967092767,0,0
72707.56918963173,0.00020161557329214435,0.0018712642581550697,0,0
72807.60253422614,0.0002021919398632045,0.001873959247197268,0,0
72907.63587860738,0.00020277663708975207,0.0018766977349232174,0,0
73007.66922298862,0.00020334503292384107,0.001879307068015531,0,0
73107.70256758304,0.00020392178172259462,0.001881973156826429,0,0
73207.73591196428,0.0002045098434828714,0.001884718880176511,0,0
73307.76925634552,0.0002050902401810418,0.0018873894840866331,0,0
73407.80260093993,0.00020567993977936545,0.0018901902459076943,0,0
73507.83594532117,0.0002062638224527252,0.0018928218065327714,0,0
73607.86928970242,0.00020684236717307677,0.0018954391946270288,0,0
73707.90263429683,0.00020744863757365234,0.001898266206007168,0,0
73807.93597867807,0.00020804134723310784,0.0019010018403453044,0,0
73907.96932305933,0.00020864480419834688,0.0019037425436255716,0,0
74008.00266765372,0.00020923480611325282,0.0019064133140505317,0,0
74108.03601203498,0.00020983845016383652,0.0019091294790164303,0,0
74208.06935641622,0.00021045524694611827,0.0019119173257473843,0,0
74308.10270079746,0.00021105551940702155,0.0019145577026145168,0,0
74408.13604539188,0.00021164502428996633,0.0019172007924134727,0,0
74508.16938977312,0.00021227049926891446,0.0019200595913157774,0,0
74608.20273415436,0.00021288110698638717,0.001922755364247335,0,0
74708.23607874877,0.00021350510006572663,0.0019255040942037878,0,0
74808.26942313001,0.00021411685098962215,0.0019282165486131213,0,0
74908.30276751125,0.00021473840323670533,0.001930967431404477,0,0
75008.33611210567,0.00021536065270373297,0.001933691228281417,0,0
75108.36945648691,0.00021597965151551345,0.001936458720705337,0,0
75208.40280086816,0.00021660564074822613,0.0019391617057119951,0,0
75308.43614546256,0.00021722767585583848,0.0019418912258302716,0,0
75408.46948984382,0.000217867668806833,0.0019446178715735224,0,0
75508.50283422506,0.00021850931560450838,0.0019473815546247166,0,0
75608.53617881946,0.00021914837497966682,0.0019500864784667764,0,0
75708.56952320071,0.00021980037597112134,0.0019528749552889754,0,0
75808.60286758195,0.00022045543647694862,0.0019556997189339935,0,0
75908.63621217637,0.0002211132805336409,0.0019584199577770476,0,0
76008.66955655761,0.0002217675501680562,0.0019611672158546837,0,0
76108.70290093885,0.00022243226414848084,0.0019639714412151717,0,0
76208.73624532009,0.00022309786224123708,0.001966715566039913,0,0
76308.7695899145,0.00022377016964040915,0.0019694553842163746,0,0
76408.80293429575,0.00022445563998366023,0.0019722763295339316,0,0
76508.836278677,0.00022513558606723115,0.0019750377200954856,0,0
76608.8696232714,0.00022583368238175586,0.001977867570898648,0,0
76708.90296765266,0.0002265264704881576,0.00198060806287124,0,0
76808.9363120339,0.00022722547442983353,0.0019834095273882717,0,0
76908.9696566283,0.00022793184624272497,0.0019861749137127017,0,0
77009.00300100955,0.00022864990494765838,0.0019889935578602655,0,0
77109.03634539079,0.0002293785674109595,0.001991836549897046,0,0
77209.0696899852,0.00023011668860268815,0.0019947158773333676,0,0
77309.10303436645,0.00023084972010387574,0.001997455195253698,0,0
77409.13637874769,0.0002316039071696892,0.0020003135959292553,0,0
77509.1697233421,0.00023236712120430766,0.002003105788890787,0,0
77609.20306772334,0.00023314041611586356,0.002005951211897093,0,0
77709.23641210458,0.00023393703258227407,0.0020088761037707374,0,0
77809.26975648584,0.00023473068659469608,0.002011689082571071,0,0
77909.30310108024,0.00023553728465522674,0.0020144876098622875,0,0
78009.3364454615,0.0002363667873153495,0.00201734952506254,0,0
78109.36978984273,0.00023720844211211413,0.002020242832462837,0,0
78209.40313443713,0.00023805830808327255,0.0020230033192721285,0,0
78309.43647881839,0.00023893099334831183,0.002025845928333334,0,0
78409.46982319963,0.00023983263161443587,0.002028745307158654,0,0
78509.50316779404,0.0002407443464549546,0.0020315840231145054,0,0
78609.53651217528,0.0002416763795988185,0.002034433189750437,0,0
78709.56985655653,0.00024264105886641238,0.002037297420643817,0,0
78809.60320115094,0.00024363634569475704,0.0020402033908949123,0,0
78909.63654553218,0.00024464461250373775,0.002043064900288333,0,0
79009.66988991342,0.00024568232144750565,0.002045834956763642,0,0
79109.70323450783,0.0002467570092980825,0.0020486884247127818,0,0
79209.73657888907,0.0002478615055504029,0.0020515241936745125,0,0
79309.76992327033,0.00024901676166995575,0.0020543939224587603,0,0
79409.80326765157,0.00025019853738378166,0.00205715998805124,0,0
79509.83661224597,0.0002514166914993116,0.0020599298581062925,0,0
79609.86995662723,0.0002526728985733195,0.0020626490302273265,0,0
79709.90330100847,0.00025396917100798294,0.002065327457251631,0,0
79809.93664560288,0.00025531697994485547,0.002068032937434098,0,0
