Frequency (Hz),Impedance (ohms),Phase (Radians),Temperature (C),Humidity (%)
49999.999999954525,0.00010487052121397979,0.001276064076676896,0,0
50100.03334454893,9.897511947543801e-05,0.0012679184915872544,0,0
50200.06668893018,9.881230904374731e-05,0.0012708062350162495,0,0
50300.10003331142,9.874131858948203e-05,0.0012737196607891849,0,0
50400.13337769267,9.87462065066403e-05,0.0012766174686643034,0,0
50500.166722287075,9.881340696330707e-05,0.0012794980050405682,0,0
50600.20006666832,9.89239936587396e-05,0.0012823705597736549,0,0
50700.233411049565,9.908240333223858e-05,0.0012852564025153663,0,0
50800.26675564398,9.927426496672178e-05,0.0012880699568348557,0,0
50900.30010002522,9.948995828244845e-05,0.0012908888415717455,0,0
51000.33344440647,9.973695887842327e-05,0.0012937609746022664,0,0
51100.36678900087,9.998137356611893e-05,0.0012964740570022074,0,0
51200.40013338212,0.00010023516202891774,0.001299244411360181,0,0
51300.43347776336,0.00010049751528818922,0.0013020334224010924,0,0
51400.46682235777,0.00010078795130794595,0.0013048071618304573,0,0
51500.50016673902,0.00010109396279607067,0.0013075378886190313,0,0
51600.53351112026,0.00010141552268445105,0.0013103075185069378,0,0
51700.56685571467,0.00010170988763876843,0.0013130273900121892,0,0
51800.60020009591,0.00010201571243430612,0.001315727422380377,0,0
51900.63354447716,0.00010234241967263814,0.0013184712052686032,0,0
52000.6668888584,0.0001026840854146808,0.0013212184983652977,0,0
52100.700233452815,0.00010301529719157495,0.0013238911685825472,0,0
52200.73357783406,0.00010336019627058256,0.0013266102225526638,0,0
52300.766922215305,0.0001036952431834568,0.0013292998475734259,0,0
52400.80026680971,0.00010403956700879723,0.0013319751922076244,0,0
52500.83361119096,0.00010437972902376376,0.0013346155044688744,0,0
52600.8669555722,0.00010473030463264347,0.0013373300547317886,0,0
52700.900300166606,0.00010507805507204123,0.001340017483396825,0,0
52800.933644547855,0.00010542615437663522,0.0013427185925769325,0,0
52900.966988929096,0.0001057705392292482,0.0013453979849746983,0,0
53001.00033352351,0.00010612441744822153,0.001348094297158971,0,0
53101.03367790475,0.00010646974590362063,0.001350719202156096,0,0
53201.067022286,0.00010682599322185498,0.0013533963482193936,0,0
53301.100366880404,0.00010718479081622531,0.0013560748223232877,0,0
53401.13371126165,0.00010754284622127854,0.001358791613558913,0,0
53501.167055642894,0.00010789841045131404,0.0013613946292977018,0,0
53601.2004002373,0.00010826791541951895,0.0013641145765353696,0,0
53701.23374461855,0.00010864026412150112,0.0013667943146104264,0,0
53801.2670889998,0.00010900871495508804,0.00136944508850244,0,0
53901.30043338104,0.00010939217493074158,0.001372136962662397,0,0
54001.333777975444,0.00010977507041113765,0.0013748038834631392,0,0
54101.36712235669,0.00011016638833323234,0.0013775207478638881,0,0
54201.400466737934,0.00011054728736739768,0.0013801872978529079,0,0
54301.43381133235,0.0001109563621785349,0.0013828559291573206,0,0
54401.46715571359,0.00011136623475076344,0.0013854935924220678,0,0
54501.50050009484,0.00011176482408240522,0.0013881662159743815,0,0
54601.53384468924,0.00011218242288223044,0.0013908300832246446,0,0
54701.56718907049,0.0001126112738462133,0.001393516001931171,0,0
54801.60053345173,0.00011305543670128896,0.001396191611026007,0,0
54901.63387804614,0.00011348429539246899,0.0013988388882042646,0,0
55001.667222427386,0.00011392408680316271,0.001401485649917641,0,0
55101.700566808635,0.00011436274212633554,0.0014041515386972482,0,0
55201.73391140304,0.00011481823939680328,0.0014067818442087348,0,0
55301.76725578428,0.00011527554839222926,0.0014093992325876384,0,0
55401.80060016553,0.00011573513535005503,0.001412007957449703,0,0
55501.83394454677,0.00011618856206627669,0.0014146304678450108,0,0
55601.867289141184,0.00011664307278653444,0.0014172484942052074,0,0
55701.900633522426,0.00011709415665119577,0.0014197674033098026,0,0
55801.933977903675,0.00011751788777399419,0.0014223515403803092,0,0
55901.96732249808,0.00011794578933072677,0.001424963812521271,0,0
56002.00066687933,0.0001183366388442653,0.0014274929847019435,0,0
56102.03401126057,0.00011874951323313807,0.001430127376840153,0,0
56202.067355854975,0.0001191177664261919,0.001432640032822139,0,0
56302.100700236224,0.0001194938752228264,0.0014352370632469739,0,0
56402.13404461747,0.00011987170392331131,0.0014378250490569673,0,0
56502.16738921188,0.00012025414085446091,0.0014404278749166322,0,0
56602.20073359312,0.0001206252959942581,0.0014430136733270041,0,0
56702.23407797437,0.00012100012941812802,0.0014456526308476703,0,0
56802.26742256877,0.00012137749276932345,0.0014482844887628542,0,0
56902.30076695002,0.00012176788468677104,0.0014509007776402198,0,0
57002.33411133126,0.00012214486138661872,0.0014535061120376606,0,0
57102.36745571251,0.0001225394302438174,0.0014561796488409484,0,0
57202.40080030692,0.00012293390928406662,0.0014588224104731685,0,0
57302.434144688166,0.000123331710215111,0.0014614567181377108,0,0
57402.46748906941,0.00012373104499171532,0.001464084125633451,0,0
57502.50083366381,0.00012413471459866453,0.001466731764248568,0,0
57602.53417804506,0.00012454226758029684,0.001469333293161172,0,0
57702.56752242631,0.00012494814706026384,0.0014719718414804588,0,0
57802.600867020716,0.0001253612756707077,0.0014746078264045485,0,0
57902.63421140196,0.0001257787243577706,0.0014772541254474613,0,0
58002.667555783206,0.00012619580504468034,0.001479899282648339,0,0
58102.70090037761,0.0001266143515876681,0.0014825548654304463,0,0
58202.73424475886,0.00012703313564087147,0.0014851776976508924,0,0
58302.7675891401,0.0001274590385036231,0.001487846443932687,0,0
58402.800933734514,0.00012788496896888374,0.001490503404987304,0,0
58502.834278115755,0.0001283132150513204,0.0014931412668217916,0,0
58602.867622497004,0.00012873726171034602,0.001495761232512784,0,0
58702.90096709141,0.00012917824308819294,0.0014984105249314745,0,0
58802.93431147265,0.00012961891973406692,0.0015010412764485987,0,0
58902.9676558539,0.00013005723277244335,0.0015037338789665115,0,0
59003.00100023515,0.00013050173511511517,0.0015063994475371708,0,0
59103.03434482955,0.00013094185594266322,0.0015090509119866193,0,0
59203.067689210795,0.00013138541954001571,0.0015116958900229913,0,0
59303.101033592044,0.00013182706680546974,0.001514351271415578,0,0
59403.13437818645,0.00013228556900385117,0.00151705649913225,0,0
59503.1677225677,0.00013275341480821766,0.0015197032958386833,0,0
59603.20106694894,0.00013323164274346892,0.0015224393293478285,0,0
59703.23441154335,0.0001337000487692884,0.0015250927713514584,0,0
59803.26775592459,0.00013420303992530124,0.001527855481282835,0,0
59903.30110030584,0.00013471829306827799,0.0015305725844692354,0,0
60003.33444490025,0.000135284647515502,0.0015333804436466602,0,0
60103.36778928149,0.0001359093875191452,0.0015362330655173172,0,0
60203.40113366274,0.00013663091687419622,0.0015391009660855788,0,0
60303.43447825714,0.0001375521399353854,0.0015419555179641716,0,0
60403.46782263839,0.00013885242447889267,0.001544738520393216,0,0
60503.50116701963,0.00014064643627689614,0.0015468220687776786,0,0
60603.53451140088,0.00014186094592245335,0.001547597591070755,0,0
60703.56785599529,0.00014112907702265926,0.0015485400320813878,0,0
60803.601200376535,0.00014021687113460044,0.0015509444626223142,0,0
60903.63454475778,0.00013991149734859568,0.0015539245487206288,0,0
61003.66788935219,0.00013998276975900058,0.0015568939779377203,0,0
61103.70123373343,0.00014026261219650553,0.0015598207041007236,0,0
61203.73457811468,0.0001406306904523293,0.001562682821099676,0,0
61303.767922709085,0.0001410640083103618,0.0015654961211921206,0,0
61403.801267090326,0.00014152539771681425,0.0015682836601831533,0,0
61503.834611471575,0.00014203993424350743,0.0015710519943358003,0,0
61603.86795606598,0.00014258127026445206,0.0015737775106759357,0,0
61703.90130044723,0.00014315517730553262,0.0015764504128582659,0,0
61803.93464482847,0.00014381460380913862,0.0015791938948332997,0,0
61903.96798942288,0.00014450396219089785,0.001581764871543442,0,0
62004.001333804124,0.00014521144537016378,0.001584141908733153,0,0
62104.03467818537,0.00014586604185071875,0.001586461983093773,0,0
62204.06802277978,0.00014631340459609994,0.001588619246342561,0,0
62304.10136716103,0.00014650619757166971,0.001590833533579772,0,0
62404.13471154227,0.00014659843557246656,0.0015933400029342348,0,0
62504.16805592352,0.00014672804632627338,0.0015959671941683546,0,0
62604.20140051792,0.000146952918081797,0.0015987090516508876,0,0
62704.234744899164,0.00014722164016636204,0.0016014133714270236,0,0
62804.26808928041,0.00014756699815110863,0.001604162630189798,0,0
62904.30143387482,0.0001479585783093552,0.0016068833737954316,0,0
63004.33477825607,0.00014836972697486,0.0016095549724201945,0,0
63104.36812263731,0.00014881294966275182,0.0016122852839182782,0,0
63204.40146723172,0.00014926251514924823,0.001614977065929373,0,0
63304.43481161296,0.0001497167417005127,0.0016176636276689846,0,0
63404.46815599421,0.0001501799255211679,0.0016203321802898249,0,0
63504.501500588616,0.0001506355474456337,0.0016229983624251201,0,0
63604.534844969865,0.00015111158109911075,0.0016257081122360698,0,0
63704.56818935111,0.00015156972138439704,0.001628354100852709,0,0
63804.60153394552,0.00015204106956739728,0.0016310009013177091,0,0
63904.63487832676,0.00015249765155830733,0.001633640502421595,0,0
64004.668222708,0.0001529672794426469,0.0016362690321693894,0,0
64104.70156708925,0.00015344304406335037,0.0016389539899178982,0,0
64204.734911683656,0.0001539154460778474,0.0016416274118149655,0,0
64304.768256064905,0.00015438897085621496,0.0016442984318790971,0,0
64404.801600446146,0.0001548564619717622,0.001646893517854287,0,0
64504.83494504056,0.00015533698796094703,0.0016495824350636508,0,0
64604.8682894218,0.000155809086472378,0.0016521694556479807,0,0
64704.90163380305,0.0001563020759365787,0.001654829585399468,0,0
64804.934978397454,0.00015677676728018052,0.0016574927585307922,0,0
64904.9683227787,0.0001572725026760509,0.0016601489209512193,0,0
65005.001667159944,0.0001577567636521423,0.0016627846790523418,0,0
65105.03501175436,0.00015822909491690639,0.0016654287464371925,0,0
65205.0683561356,0.00015873815752189108,0.0016681553575171933,0,0
65305.10170051684,0.00015921409357374486,0.0016707817795239904,0,0
65405.13504511125,0.00015970493195266105,0.0016734074227062212,0,0
65505.16838949249,0.00016019203110028882,0.0016760128072856254,0,0
65605.20173387374,0.0001606845107610651,0.0016786831337351083,0,0
65705.23507825499,0.00016118104491018434,0.0016813240290319625,0,0
65805.26842284939,0.00016169269764730262,0.0016839938245868029,0,0
65905.30176723065,0.00016217873523281524,0.0016865693855919787,0,0
66005.33511161189,0.00016268329061083284,0.0016892365185297031,0,0
66105.3684562063,0.0001631686026923824,0.0016918831620278425,0,0
66205.40180058754,0.00016366496793658993,0.0016945143818283056,0,0
66305.43514496878,0.00016418603123459434,0.0016972435657714238,0,0
66405.4684895632,0.0001646748607707836,0.0016998820045763532,0,0
66505.50183394444,0.00016517885732252708,0.0017025137362795095,0,0
66605.53517832568,0.00016567813937394624,0.0017051299795586797,0,0
66705.56852292009,0.00016618579550245962,0.0017077902065422972,0,0
66805.60186730133,0.0001666981049658069,0.0017104488651334267,0,0
66905.63521168257,0.00016719821182453382,0.0017130577524130603,0,0
67005.66855627699,0.00016770502161386655,0.0017156835956573737,0,0
67105.70190065823,0.00016820855822186883,0.0017182742903142378,0,0
67205.73524503948,0.0001687219383902347,0.0017209388047318046,0,0
67305.76858963388,0.00016924050464238536,0.0017236221249255445,0,0
67405.80193401514,0.0001697526160204392,0.001726267180275627,0,0
67505.83527839638,0.00017026438065377713,0.0017289189534982093,0,0
67605.86862277762,0.0001707784537908631,0.0017315654708411135,0,0
67705.90196737203,0.00017129491821732827,0.0017341858064727825,0,0
67805.93531175327,0.0001718087901968535,0.001736812602743326,0,0
67905.96865613452,0.00017234544957205018,0.0017395052171657614,0,0
68006.00200072893,0.00017286144776175794,0.001742148144164654,0,0
68106.03534511017,0.0001733804228416896,0.0017447505210114176,0,0
68206.06868949141,0.00017390226590441475,0.0017474245188895063,0,0
68306.10203408582,0.00017442673759293607,0.0017500782729397055,0,0
68406.13537846706,0.00017494799529361858,0.001752765640912066,0,0
68506.16872284832,0.00017546914939115058,0.001755473518598239,0,0
68606.20206744272,0.0001759765577799612,0.001758037648489605,0,0
68706.23541182397,0.0001765018781559976,0.0017606894965051332,0,0
68806.26875620522,0.00017701284990829122,0.001763235321973989,0,0
68906.30210079963,0.0001775346791225488,0.0017659351863760515,0,0
69006.33544518087,0.00017805466015860912,0.0017686308560417921,0,0
69106.36878956211,0.0001785520655493808,0.0017712425250426154,0,0
69206.40213394335,0.00017906952383791547,0.0017738769828862919,0,0
69306.43547853777,0.0001795886274268906,0.0017765432324732514,0,0
69406.468822919,0.00018008124014968745,0.0017791928649946757,0,0
69506.50216730025,0.0001805996895071969,0.001781860875348694,0,0
69606.53551189466,0.00018111571962727357,0.0017845034890426879,0,0
69706.5688562759,0.00018163539602510272,0.0017871923691467255,0,0
69806.60220065716,0.00018216281720934987,0.0017898371931413908,0,0
69906.63554525156,0.0001827055936857692,0.0017925222384296763,0,0
70006.66888963281,0.00018323023366269606,0.001795242583770928,0,0
70106.70223401405,0.00018376495473209798,0.001797882354074636,0,0
70206.73557860847,0.0001843047643267689,0.0018004883065534246,0,0
70306.76892298971,0.00018485070167775103,0.0018032229061464397,0,0
70406.80226737095,0.0001853884424869534,0.0018058166470289229,0,0
70506.83561196536,0.00018593725811248254,0.0018085118482731072,0,0
70606.8689563466,0.00018648806630251134,0.0018112115383154437,0,0
70706.90230072784,0.0001870321638456851,0.0018138439595968782,0,0
70806.93564510909,0.00018758502004061236,0.0018165814201071561,0,0
70906.9689897035,0.0001881505897568536,0.0018192709969952737,0,0
71007.00233408474,0.0001887098369364014,0.0018219572339209576,0,0
71107.035678466,0.0001892482588392237,0.0018245578039570224,0,0
71207.0690230604,0.00018980072479598233,0.0018272146833146448,0,0
71307.10236744165,0.0001903467152267124,0.0018298561047301,0,0
71407.13571182289,0.00019089757142895858,0.0018325480631666614,0,0
71507.1690564173,0.0001914749997263531,0.001835284385179502,0,0
71607.20240079855,0.0001920148722744508,0.0018379597560531902,0,0
71707.23574517979,0.000192573731610009,0.0018406046121328642,0,0
71807.2690897742,0.00019313511653750609,0.0018433174143659703,0,0
71907.30243415544,0.00019369254796872555,0.0018458941295658854,0,0
72007.33577853668,0.00019427785176896121,0.0018486594175538113,0,0
72107.3691231311,0.00019483553201894035,0.0018512655541489985,0,0
72207.40246751234,0.00019540816535408106,0.0018539897746806594,0,0
72307.43581189358,0.0001959817978610451,0.0018567082650224592,0,0
72407.46915648799,0.00019654220435554994,0.001859320586089792,0,0
72507.50250086923,0.00019711488513635185,0.0018620135662482085,0,0
72607.53584525049,0.00019768717940128684,0.00186466379781045,0,0
72707.56918963173,0.00019828268936675455,0.0018673239609497514,0,0
72807.60253422614,0.00019885318928043746,0.0018700222646283622,0,0
72907.63587860738,0.00019941692121971437,0.0018726564039675494,0,0
73007.66922298862,0.00019997373926557052,0.0018753218789763775,0,0
73107.70256758304,0.0002005202211810743,0.0018780158473032476,0,0
73207.73591196428,0.00020106148545054908,0.001880738966522854,0,0
73307.76925634552,0.00020157843721320065,0.0018833520678414068,0,0
73407.80260093993,0.0002021481057528609,0.0018860610509239028,0,0
73507.83594532117,0.00020271687612234267,0.0018888107361324403,0,0
73607.86928970242,0.0002032942841961438,0.0018915545562416308,0,0
73707.90263429683,0.00020389647443339018,0.001894242468946837,0,0
73807.93597867807,0.0002044802888004618,0.0018969595284495642,0,0
73907.96932305933,0.00020506776277714713,0.0018996639040219075,0,0
74008.00266765372,0.0002056350205161356,0.0019023680654729528,0,0
74108.03601203498,0.00020622265242720654,0.0019050806080406217,0,0
74208.06935641622,0.0002068218267420644,0.0019077309171601656,0,0
74308.10270079746,0.000207400328428777,0.0019104576989398573,0,0
74408.13604539188,0.00020800096557534276,0.0019132231859580215,0,0
74508.16938977312,0.0002085580234592216,0.0019158671284822313,0,0
74608.20273415436,0.00020914281022901991,0.0019186282783600337,0,0
74708.23607874877,0.00020970529415376517,0.0019212449639724896,0,0
74808.26942313001,0.00021029363254195316,0.0019239964377182359,0,0
74908.30276751125,0.00021088348617787772,0.0019267176117765807,0,0
75008.33611210567,0.00021148510766864234,0.0019294754357566395,0,0
75108.36945648691,0.0002120934283150241,0.0019322263409050698,0,0
75208.40280086816,0.00021269247539695835,0.0019349230504594138,0,0
75308.43614546256,0.00021330425110563527,0.001937642836624057,0,0
75408.46948984382,0.00021391648700164507,0.0019403865679200876,0,0
75508.50283422506,0.00021452915560906448,0.0019431140366943421,0,0
75608.53617881946,0.0002151695149364949,0.0019459135462359621,0,0
75708.56952320071,0.00021577931788071685,0.0019486057535898149,0,0
75808.60286758195,0.00021639317877078003,0.0019513455391735575,0,0
75908.63621217637,0.000217016098631863,0.001954096228797985,0,0
76008.66955655761,0.00021764098966242206,0.001956851331901433,0,0
76108.70290093885,0.00021827291759820796,0.0019596263585786623,0,0
76208.73624532009,0.0002189052609921247,0.00196236308081283,0,0
76308.7695899145,0.00021954799308774654,0.0019651508094530802,0,0
76408.80293429575,0.00022018188578572305,0.0019678849737913406,0,0
76508.836278677,0.00022082985914619903,0.0019706698058028125,0,0
76608.8696232714,0.00022147700114770574,0.0019734223035626397,0,0
76708.90296765266,0.00022212810265933374,0.001976174727807694,0,0
76808.9363120339,0.00022277915703115874,0.0019789172830178827,0,0
76908.9696566283,0.00022344541336096052,0.001981772861245207,0,0
77009.00300100955,0.00022409691227139804,0.0019844775563210384,0,0
77109.03634539079,0.0002247664789740714,0.001987291465298556,0,0
77209.0696899852,0.00022544870105214884,0.0019901255532599636,0,0
77309.10303436645,0.00022611764695633092,0.001992875420838018,0,0
77409.13637874769,0.00022680536545756716,0.0019957395604077374,0,0
77509.1697233421,0.00022749315068311342,0.0019985081226711037,0,0
77609.20306772334,0.0002281841459709755,0.0020013494089563067,0,0
77709.23641210458,0.0002289007411989565,0.002004141603294543,0,0
77809.26975648584,0.00022960902172944995,0.0020069868715365782,0,0
77909.30310108024,0.00023032426454396994,0.002009821745097961,0,0
78009.3364454615,0.0002310417003518277,0.0020126481896570888,0,0
78109.36978984273,0.00023176672432205026,0.0020154587317066978,0,0
78209.40313443713,0.00023249464191926143,0.0020183521022807496,0,0
78309.43647881839,0.00023324870048013684,0.002021187046548757,0,0
78409.46982319963,0.00023399407476413033,0.0020239995781569714,0,0
78509.50316779404,0.00023477980630291716,0.002026989918083769,0,0
78609.53651217528,0.0002355373452014739,0.002029745815708401,0,0
78709.56985655653,0.00023632465657745782,0.002032615078177887,0,0
78809.60320115094,0.0002371204691163464,0.0020355011655411896,0,0
78909.63654553218,0.00023793272751747394,0.0020384103580581396,0,0
79009.66988991342,0.00023874608289869062,0.00204129351539048,0,0
79109.70323450783,0.00023958567556565358,0.0020441614227471525,0,0
79209.73657888907,0.00024042159668289913,0.0020470381076715762,0,0
79309.76992327033,0.00024131999474838036,0.0020500516056333384,0,0
79409.80326765157,0.00024221146065379285,0.0020529610052607947,0,0
79509.83661224597,0.00024313278630476323,0.0020559010052055666,0,0
79609.86995662723,0.00024408558424137192,0.002058970030345041,0,0
79709.90330100847,0.0002450349556001884,0.0020618451221311976,0,0
79809.93664560288,0.0002460285920304552,0.002064833524690303,0,0
79909.96998998412,0.00024705334852835554,0.0020678474789754568,0,0
