Frequency (Hz),Impedance (ohms),Phase (Radians),Temperature (C),Humidity (%)
49999.999999954525,0.00015899028664898254,0.0013278630965190216,0,0
50100.03334454893,0.00015299451359293692,0.0013196503019249196,0,0
50200.06668893018,0.00015318758199009104,0.0013226868479166835,0,0
50300.10003331142,0.00015340588159780394,0.001325740995966163,0,0
50400.13337769267,0.00015362215070569986,0.0013286897236593743,0,0
50500.166722287075,0.00015387354485953917,0.0013316461741165254,0,0
50600.20006666832,0.00015413290080245644,0.001334624288729242,0,0
50700.233411049565,0.00015439032349342458,0.0013375279650140932,0,0
50800.26675564398,0.000154642290673024,0.0013404283629577102,0,0
50900.30010002522,0.0001548612191841295,0.0013432956283227205,0,0
51000.33344440647,0.00015511314338619825,0.0013462417198976348,0,0
51100.36678900087,0.00015544064100807438,0.001349065144881181,0,0
51200.40013338212,0.0001557907853137241,0.0013519495599641986,0,0
51300.43347776336,0.00015630464382111744,0.0013548283435086126,0,0
51400.46682235777,0.00015677710612937464,0.0013576767642609795,0,0
51500.50016673902,0.0001571622548469186,0.001360484078481125,0,0
51600.53351112026,0.0001575263405654049,0.0013633160109069076,0,0
51700.56685571467,0.00015789956359225484,0.0013661242979143263,0,0
51800.60020009591,0.00015828383384181773,0.0013689423447385326,0,0
51900.63354447716,0.00015863619703269762,0.0013716890887546776,0,0
52000.6668888584,0.0001589629855985312,0.001374459180699279,0,0
52100.700233452815,0.00015932969846484092,0.001377282589457285,0,0
52200.73357783406,0.00015966609229530723,0.0013800741174966817,0,0
52300.766922215305,0.00016000135118231297,0.0013828231557384005,0,0
52400.80026680971,0.00016035457354952453,0.0013855976843162444,0,0
52500.83361119096,0.00016075175225679187,0.0013883978593267129,0,0
52600.8669555722,0.00016117083395796288,0.0013911770862915572,0,0
52700.900300166606,0.00016160286626095666,0.001393974476903379,0,0
52800.933644547855,0.00016202539542312696,0.0013967579753852277,0,0
52900.966988929096,0.00016246839627620917,0.0013995613063635265,0,0
53001.00033352351,0.00016291328442039448,0.00140225388573885,0,0
53101.03367790475,0.00016333561418693907,0.001404975678937756,0,0
53201.067022286,0.00016375053053128586,0.0014077370015125646,0,0
53301.100366880404,0.00016418067122147485,0.0014105458943902665,0,0
53401.13371126165,0.00016460309465933013,0.001413273372634494,0,0
53501.167055642894,0.00016504082485848125,0.0014159501466380034,0,0
53601.2004002373,0.0001655042151006066,0.0014187489482395876,0,0
53701.23374461855,0.00016597530653648148,0.001421503769481322,0,0
53801.2670889998,0.0001664481261063252,0.0014242654096971005,0,0
53901.30043338104,0.00016692066796030567,0.0014269823986991605,0,0
54001.333777975444,0.00016740937353358602,0.0014296966619856178,0,0
54101.36712235669,0.0001679208759629317,0.001432421851459086,0,0
54201.400466737934,0.00016843932137644354,0.001435139951645511,0,0
54301.43381133235,0.00016896454087947352,0.0014378499382379536,0,0
54401.46715571359,0.00016949751319308168,0.0014406165991763186,0,0
54501.50050009484,0.00017002186738619322,0.0014432835565459379,0,0
54601.53384468924,0.0001705468382620525,0.0014459748086867075,0,0
54701.56718907049,0.00017106700521613268,0.0014486387215981167,0,0
54801.60053345173,0.00017159439831342425,0.0014513339759432602,0,0
54901.63387804614,0.00017209679616397532,0.0014539933543543159,0,0
55001.667222427386,0.00017260168784031553,0.001456649751550709,0,0
55101.700566808635,0.0001731174030146699,0.0014593255737288405,0,0
55201.73391140304,0.00017364229089483443,0.001461990534292315,0,0
55301.76725578428,0.00017416926377984959,0.0014646679163283262,0,0
55401.80060016553,0.00017471041460260186,0.0014674073859461349,0,0
55501.83394454677,0.00017527200872208365,0.0014701026390856356,0,0
55601.867289141184,0.00017587417026407914,0.0014729343903489122,0,0
55701.900633522426,0.00017651830418397948,0.0014757543651419994,0,0
55801.933977903675,0.00017718785069864034,0.0014785350662730968,0,0
55901.96732249808,0.00017795136540628076,0.001481366657429505,0,0
56002.00066687933,0.00017878354489737468,0.0014841354543217247,0,0
56102.03401126057,0.0001796756777386601,0.001486880218755581,0,0
56202.067355854975,0.00018058650915314661,0.0014894636889080045,0,0
56302.100700236224,0.0001815230069289408,0.00149200409705398,0,0
56402.13404461747,0.00018243441735018727,0.0014944149508739155,0,0
56502.16738921188,0.00018333124104354923,0.0014966863800492986,0,0
56602.20073359312,0.00018415086548758525,0.0014989118772066486,0,0
56702.23407797437,0.0001848837277786872,0.0015009900813115584,0,0
56802.26742256877,0.00018550833973241638,0.0015030855345493524,0,0
56902.30076695002,0.00018602146145740947,0.0015051570614526982,0,0
57002.33411133126,0.00018641524224313337,0.0015072403351750901,0,0
57102.36745571251,0.00018667129664064482,0.0015093606459994668,0,0
57202.40080030692,0.00018685135229475007,0.001511463194589466,0,0
57302.434144688166,0.0001870113032023041,0.0015137760291068884,0,0
57402.46748906941,0.000187123586163603,0.0015160761673309589,0,0
57502.50083366381,0.0001872061523567825,0.0015184551326086094,0,0
57602.53417804506,0.0001872436534327209,0.0015208980089011592,0,0
57702.56752242631,0.0001872803245825026,0.0015233589697930948,0,0
57802.600867020716,0.00018735785955606822,0.0015259930750773276,0,0
57902.63421140196,0.0001874960611610908,0.0015286516195169603,0,0
58002.667555783206,0.00018766231519531416,0.001531320134638348,0,0
58102.70090037761,0.00018787278201633443,0.001534069235247094,0,0
58202.73424475886,0.00018813193375200366,0.0015368222487557653,0,0
58302.7675891401,0.00018839758882422146,0.001539517826863149,0,0
58402.800933734514,0.00018868016069963103,0.0015422561770110498,0,0
58502.834278115755,0.00018899112144283456,0.001544992240356769,0,0
58602.867622497004,0.00018933281420782926,0.001547779445208962,0,0
58702.90096709141,0.0001896917608037454,0.0015505336841184977,0,0
58802.93431147265,0.00019008812463828186,0.0015533149095645223,0,0
58902.9676558539,0.00019051475064776693,0.0015561328960682827,0,0
59003.00100023515,0.0001909524313081464,0.0015588832016654483,0,0
59103.03434482955,0.00019141971892121964,0.001561692219824602,0,0
59203.067689210795,0.00019190969912896244,0.0015645290966199421,0,0
59303.101033592044,0.00019238228851892468,0.0015672435119247884,0,0
59403.13437818645,0.00019288119266435227,0.0015700235966153613,0,0
59503.1677225677,0.00019337416335487822,0.0015728202620140252,0,0
59603.20106694894,0.00019388717242276943,0.0015756427770289283,0,0
59703.23441154335,0.00019439198595609195,0.001578395469576665,0,0
59803.26775592459,0.00019489811555227333,0.0015811684735709112,0,0
59903.30110030584,0.00019540851638833912,0.0015839343272227879,0,0
60003.33444490025,0.0001959326579319677,0.0015867599053416214,0,0
60103.36778928149,0.00019644118362093958,0.0015894845298128056,0,0
60203.40113366274,0.00019695893914073556,0.001592250839107933,0,0
60303.43447825714,0.0001974746837027984,0.0015950198165940494,0,0
60403.46782263839,0.00019799301573527543,0.001597789235146227,0,0
60503.50116701963,0.00019850498376913458,0.0016004723305553697,0,0
60603.53451140088,0.00019901517038810839,0.0016031957329942352,0,0
60703.56785599529,0.00019954341527597354,0.0016060338415566707,0,0
60803.601200376535,0.00020005942905145101,0.0016087588956115732,0,0
60903.63454475778,0.0002005799571235318,0.0016115100834544452,0,0
61003.66788935219,0.00020109423199841974,0.0016142662964497162,0,0
61103.70123373343,0.00020160597104503918,0.0016169799611975932,0,0
61203.73457811468,0.00020211083475143,0.0016196355973208307,0,0
61303.767922709085,0.00020263263165419337,0.0016224087261086616,0,0
61403.801267090326,0.00020316014560380869,0.0016251846334660418,0,0
61503.834611471575,0.00020368317214497622,0.0016279402080352603,0,0
61603.86795606598,0.00020419603077850918,0.001630633014217813,0,0
61703.90130044723,0.0002047142843887959,0.001633356242764293,0,0
61803.93464482847,0.00020524568811764279,0.0016360659839400504,0,0
61903.96798942288,0.00020577539741577274,0.0016388321490390962,0,0
62004.001333804124,0.00020629890277015065,0.001641545381133725,0,0
62104.03467818537,0.00020683323501093206,0.0016443428839729415,0,0
62204.06802277978,0.00020734931274773164,0.0016469995065875442,0,0
62304.10136716103,0.0002078800217602925,0.0016497786870256703,0,0
62404.13471154227,0.00020839979824287594,0.0016524899897795036,0,0
62504.16805592352,0.00020892736070626146,0.0016552317539437972,0,0
62604.20140051792,0.00020946118494045003,0.001657983836830525,0,0
62704.234744899164,0.0002099793082421246,0.0016606441465450339,0,0
62804.26808928041,0.00021050955791376564,0.0016633926509108472,0,0
62904.30143387482,0.00021102738284353964,0.0016660352051068592,0,0
63004.33477825607,0.00021156753570626937,0.0016688239214906453,0,0
63104.36812263731,0.00021208567238496548,0.0016715077017560801,0,0
63204.40146723172,0.00021261620695774364,0.0016742199596627826,0,0
63304.43481161296,0.00021315109788794983,0.0016769757628778013,0,0
63404.46815599421,0.00021367839590848815,0.0016796736491598106,0,0
63504.501500588616,0.00021421627392282443,0.0016824444168424336,0,0
63604.534844969865,0.0002147464300853212,0.0016851567370265272,0,0
63704.56818935111,0.00021527452407148765,0.0016878215111492175,0,0
63804.60153394552,0.00021581292826327022,0.0016905723844671788,0,0
63904.63487832676,0.000216343909788683,0.0016932693208499643,0,0
64004.668222708,0.0002168797504388402,0.0016960098697778767,0,0
64104.70156708925,0.00021741925287519965,0.0016987477614778003,0,0
64204.734911683656,0.0002179517453745446,0.0017014499993931985,0,0
64304.768256064905,0.00021849649061394462,0.0017042240842891066,0,0
64404.801600446146,0.0002190251360057305,0.0017068877786719859,0,0
64504.83494504056,0.00021956329642644072,0.0017096077316901695,0,0
64604.8682894218,0.00022010346865540274,0.0017123318289390627,0,0
64704.90163380305,0.00022064746668379965,0.001715076723817012,0,0
64804.934978397454,0.00022118394445241445,0.0017177876956021194,0,0
64904.9683227787,0.00022173260048357577,0.0017205416396013588,0,0
65005.001667159944,0.00022227564330983766,0.0017232883010063554,0,0
65105.03501175436,0.00022281821900297912,0.0017260007033794169,0,0
65205.0683561356,0.00022336954004543527,0.001728746956369233,0,0
65305.10170051684,0.00022391698822528925,0.001731473787506371,0,0
65405.13504511125,0.00022447244666077843,0.0017342381090308312,0,0
65505.16838949249,0.000225013425476929,0.0017369182939613592,0,0
65605.20173387374,0.00022557383683300612,0.0017396784876482902,0,0
65705.23507825499,0.00022612703129551778,0.001742427378514233,0,0
65805.26842284939,0.00022668331614766277,0.00174518263138832,0,0
65905.30176723065,0.0002272430571288434,0.0017479164054042503,0,0
66005.33511161189,0.00022781251398928248,0.0017506829306435082,0,0
66105.3684562063,0.00022837507665028725,0.0017534046204794346,0,0
66205.40180058754,0.00022896170574455304,0.0017562218665715507,0,0
66305.43514496878,0.00022955500315544034,0.0017590096319175267,0,0
66405.4684895632,0.00023016545169251442,0.0017618080921156236,0,0
66505.50183394444,0.0002308085099849259,0.001764629131344662,0,0
66605.53517832568,0.00023154828098217482,0.0017675581389001932,0,0
66705.56852292009,0.00023301986542650268,0.0017704647693596487,0,0
66805.60186730133,0.0002346768490586594,0.0017710215447215162,0,0
66905.63521168257,0.0002348969560135206,0.0017731335151501544,0,0
67005.66855627699,0.00023516480230619313,0.0017756164641781701,0,0
67105.70190065823,0.00023542388689126677,0.001778167286029591,0,0
67205.73524503948,0.00023571473836847006,0.0017807981426969472,0,0
67305.76858963388,0.0002360456907522571,0.0017835088039675135,0,0
67405.80193401514,0.0002364077021415087,0.0017862336516693705,0,0
67505.83527839638,0.00023681403362932444,0.0017890055684593592,0,0
67605.86862277762,0.00023723343082019383,0.0017917663226270726,0,0
67705.90196737203,0.00023767671168889223,0.0017945638998500563,0,0
67805.93531175327,0.00023814714358970574,0.0017973561621764062,0,0
67905.96865613452,0.00023862181400083473,0.0018000929891961019,0,0
68006.00200072893,0.00023912328554430166,0.0018028944497547666,0,0
68106.03534511017,0.00023962135346508224,0.0018056366159632205,0,0
68206.06868949141,0.0002401433194684518,0.0018084193370800014,0,0
68306.10203408582,0.0002406798698212647,0.0018112289502463384,0,0
68406.13537846706,0.00024122267123436817,0.0018140383999126278,0,0
68506.16872284832,0.00024175834626536595,0.0018167914471053917,0,0
68606.20206744272,0.00024231027771808104,0.0018195957973449945,0,0
68706.23541182397,0.00024286053815842013,0.0018223694988397266,0,0
68806.26875620522,0.00024342403500150346,0.001825158824828413,0,0
68906.30210079963,0.0002439770038891134,0.0018278857160793542,0,0
69006.33544518087,0.00024454334035365174,0.001830663172176291,0,0
69106.36878956211,0.0002451139917095882,0.0018333715621784421,0,0
69206.40213394335,0.00024568381377092745,0.0018361828903918468,0,0
69306.43547853777,0.0002462482304775444,0.0018389264788753424,0,0
69406.468822919,0.0002468267833917494,0.001841675752392527,0,0
69506.50216730025,0.00024740664549076607,0.001844463196074163,0,0
69606.53551189466,0.00024799184980427895,0.0018471638954014882,0,0
69706.5688562759,0.0002485800189632223,0.001849915134800975,0,0
69806.60220065716,0.00024917600406544323,0.0018527197877622344,0,0
69906.63554525156,0.0002497758282934864,0.00185548837949884,0,0
70006.66888963281,0.0002503741244222728,0.0018582207190266104,0,0
70106.70223401405,0.0002509812619528628,0.0018609990817195384,0,0
70206.73557860847,0.0002515649512916535,0.001863645978881588,0,0
70306.76892298971,0.0002521693538207295,0.001866440950724686,0,0
70406.80226737095,0.000252761978003412,0.001869154727552161,0,0
70506.83561196536,0.0002533529152109288,0.0018718662319678445,0,0
70606.8689563466,0.00025395019787945373,0.0018746244357424158,0,0
70706.90230072784,0.0002545548123812927,0.0018774504134168046,0,0
70806.93564510909,0.0002551470712563324,0.0018801290983281893,0,0
70906.9689897035,0.0002557564998875419,0.0018829276182302259,0,0
71007.00233408474,0.00025636059884444297,0.0018856788414308582,0,0
71107.035678466,0.00025695311404511214,0.0018883149574805509,0,0
71207.0690230604,0.00025755938332010204,0.0018910591115164647,0,0
71307.10236744165,0.0002581751439730316,0.0018937991993914726,0,0
71407.13571182289,0.00025879938524367657,0.001896602454816627,0,0
71507.1690564173,0.000259413110457897,0.0018993118148978036,0,0
71607.20240079855,0.00026003353779120676,0.0019020738706339794,0,0
71707.23574517979,0.0002606696084167788,0.0019048681320169606,0,0
71807.2690897742,0.00026129942405448455,0.0019076069757577995,0,0
71907.30243415544,0.00026193284997993863,0.0019103235825191655,0,0
72007.33577853668,0.00026256921308194216,0.001913071814677301,0,0
72107.3691231311,0.0002632203322656078,0.0019158253310196606,0,0
72207.40246751234,0.0002638567525542077,0.0019184620582315991,0,0
72307.43581189358,0.00026452383679505985,0.0019212134486251578,0,0
72407.46915648799,0.00026519272025215764,0.0019239387437120935,0,0
72507.50250086923,0.0002658615852667561,0.0019266337751953732,0,0
72607.53584525049,0.00026654511242006,0.0019293735539455447,0,0
72707.56918963173,0.0002672087674816143,0.0019319849652577191,0,0
72807.60253422614,0.0002678395618212212,0.0019345932487499172,0,0
72907.63587860738,0.0002683884182141645,0.0019371110904619325,0,0
73007.66922298862,0.0002688325220625479,0.0019397241160336992,0,0
73107.70256758304,0.00026917720707636636,0.0019424025839916898,0,0
73207.73591196428,0.0002695620605497012,0.0019452353295344262,0,0
73307.76925634552,0.00027005348835029523,0.0019482001474020567,0,0
73407.80260093993,0.0002706453515145618,0.0019511292379902326,0,0
73507.83594532117,0.00027129232476169103,0.0019540535180611754,0,0
73607.86928970242,0.00027196229064563646,0.0019569057700260526,0,0
73707.90263429683,0.00027265463118426593,0.001959775379366156,0,0
73807.93597867807,0.0002733410216756972,0.0019626018111113972,0,0
73907.96932305933,0.00027403626775199626,0.0019654149377575847,0,0
74008.00266765372,0.00027473212892838064,0.0019682034727688015,0,0
74108.03601203498,0.00027542876447625387,0.0019709960906645957,0,0
74208.06935641622,0.00027613158673444346,0.0019738442835108326,0,0
74308.10270079746,0.0002768225094155273,0.001976571485479536,0,0
74408.13604539188,0.0002775324204564704,0.0019793978946870618,0,0
74508.16938977312,0.0002782552351215999,0.00198223218389635,0,0
74608.20273415436,0.0002789649849417209,0.0019850166773419053,0,0
74708.23607874877,0.00027968785257575027,0.0019878562962665565,0,0
74808.26942313001,0.00028040362785731153,0.0019905699804292475,0,0
74908.30276751125,0.00028113191341704236,0.0019933675649743544,0,0
75008.33611210567,0.00028186079936692453,0.0019961238359608954,0,0
75108.36945648691,0.00028258897873910524,0.001998884093847951,0,0
75208.40280086816,0.0002833300170630627,0.0020016903076845644,0,0
75308.43614546256,0.00028406989999553336,0.002004458044108095,0,0
75408.46948984382,0.0002848209020513527,0.00200727090550813,0,0
75508.50283422506,0.0002855761638695036,0.0020100411239165625,0,0
75608.53617881946,0.00028633647893316726,0.0020128409877439805,0,0
75708.56952320071,0.0002870937941638176,0.002015573080552944,0,0
75808.60286758195,0.00028787477028296326,0.0020184024441300837,0,0
75908.63621217637,0.0002886446438984266,0.0020211159927442024,0,0
76008.66955655761,0.00028944660971602567,0.0020239806150861837,0,0
76108.70290093885,0.00029023301268139606,0.0020266628588361283,0,0
76208.73624532009,0.0002910541139588787,0.002029526065796852,0,0
76308.7695899145,0.00029187556588949404,0.002032350394778989,0,0
76408.80293429575,0.00029271011622673067,0.00203519195487985,0,0
76508.836278677,0.00029353648072722604,0.0020378478110937527,0,0
76608.8696232714,0.0002943917294462825,0.00204067616063039,0,0
76708.90296765266,0.00029523881545681787,0.0020433854746864013,0,0
76808.9363120339,0.00029611968135079725,0.0020461714922988482,0,0
76908.9696566283,0.00029701180596333277,0.0020490015562674158,0,0
77009.00300100955,0.00029791323009242175,0.0020517764379185724,0,0
77109.03634539079,0.00029882098385726295,0.002054513558066103,0,0
77209.0696899852,0.00029973244893749865,0.0020572060226925824,0,0
77309.10303436645,0.00030066672048541205,0.0020599450699776345,0,0
77409.13637874769,0.0003016224497099438,0.002062668905334552,0,0
77509.1697233421,0.00030259262640790755,0.002065405958862462,0,0
77609.20306772334,0.0003035677994959633,0.0020681000532302976,0,0
77709.23641210458,0.0003045611285948042,0.002070814144768798,0,0
77809.26975648584,0.0003055653150734995,0.002073486605241192,0,0
77909.30310108024,0.0003065742647831954,0.0020760870308731637,0,0
78009.3364454615,0.0003076021991325017,0.002078738964728115,0,0
78109.36978984273,0.00030863324317745994,0.00208133111989846,0,0
78209.40313443713,0.00030968311079858314,0.0020838967979936174,0,0
78309.43647881839,0.0003107359294522501,0.0020864115056822763,0,0
78409.46982319963,0.0003118179669128684,0.002089010920803089,0,0
78509.50316779404,0.000312890276871615,0.0020915555396796514,0,0
78609.53651217528,0.000313963184723697,0.002094023796134356,0,0
78709.56985655653,0.0003150181194155362,0.002096443670658134,0,0
78809.60320115094,0.00031606657295889224,0.0020987629753411977,0,0
78909.63654553218,0.00031712608636094377,0.0021011641492239812,0,0
79009.66988991342,0.0003181601289402151,0.0021034563179160386,0,0
79109.70323450783,0.00031917412838660726,0.0021056904699728258,0,0
79209.73657888907,0.0003201715796601518,0.002107927690073804,0,0
79309.76992327033,0.0003211400810514077,0.0021101152206985,0,0
79409.80326765157,0.00032207230947925935,0.002112250031376756,0,0
79509.83661224597,0.00032296394539943154,0.002114376148216468,0,0
79609.86995662723,0.0003238199165878173,0.0021165494579977423,0,0
79709.90330100847,0.00032461909078796775,0.0021185915792592256,0,0
79809.93664560288,0.00032538728422488723,0.0021207370982542087,0,0
79909.96998998412,0.00032608195029542626,0.002122706057179151,0,0
