Frequency (Hz),Impedance (ohms),Phase (Radians),Temperature (C),Humidity (%)
49999.999999954525,7.188172741979353e-05,0.0009995165507376642,0,0
50100.03334454893,6.805198504727924e-05,0.0009937384579092835,0,0
50200.06668893018,6.829246725533245e-05,0.00099575650905147,0,0
50300.10003331142,6.852224841951665e-05,0.0009976915263158542,0,0
50400.13337769267,6.876730593365528e-05,0.0009996942559532826,0,0
50500.166722287075,6.900216807381543e-05,0.001001683380025963,0,0
50600.20006666832,6.924257612732457e-05,0.0010036679945698707,0,0
50700.233411049565,6.948707103609493e-05,0.0010056967494826493,0,0
50800.26675564398,6.972751119103462e-05,0.001007687354868539,0,0
50900.30010002522,6.996956493500486e-05,0.0010096949739599435,0,0
51000.33344440647,7.021302152483378e-05,0.0010116585407847051,0,0
51100.36678900087,7.04539136301455e-05,0.0010136783534124094,0,0
51200.40013338212,7.069632892250745e-05,0.001015691798172766,0,0
51300.43347776336,7.094052682444932e-05,0.0010176902488499555,0,0
51400.46682235777,7.119038247711457e-05,0.0010197179090536592,0,0
51500.50016673902,7.143224778572158e-05,0.00102173381155948,0,0
51600.53351112026,7.167828912334739e-05,0.0010237314161082368,0,0
51700.56685571467,7.193060138494346e-05,0.0010257608305328121,0,0
51800.60020009591,7.218596886452767e-05,0.0010278043441150732,0,0
51900.63354447716,7.243754786690936e-05,0.0010298232613116386,0,0
52000.6668888584,7.269622794658794e-05,0.001031864673619033,0,0
52100.700233452815,7.295711845078716e-05,0.0010338982680303099,0,0
52200.73357783406,7.322320955848459e-05,0.0010359465926874645,0,0
52300.766922215305,7.35034096708611e-05,0.001038020262700516,0,0
52400.80026680971,7.379331999761817e-05,0.0010401018706901787,0,0
52500.83361119096,7.408542322123423e-05,0.0010421736584584462,0,0
52600.8669555722,7.439833824875972e-05,0.0010442926700599577,0,0
52700.900300166606,7.472743527728656e-05,0.0010464101472165092,0,0
52800.933644547855,7.507751586178478e-05,0.0010485676442005243,0,0
52900.966988929096,7.546978107407069e-05,0.0010507366287623812,0,0
53001.00033352351,7.591376549199483e-05,0.0010529122634097923,0,0
53101.03367790475,7.643691317834369e-05,0.0010551916591222405,0,0
53201.067022286,7.707887622249427e-05,0.0010574851535469305,0,0
53301.100366880404,7.791385878669381e-05,0.001059834553787467,0,0
53401.13371126165,7.906561090252719e-05,0.0010621413732925797,0,0
53501.167055642894,8.069512687838951e-05,0.0010641469605403072,0,0
53601.2004002373,8.278284061283366e-05,0.0010653833208588495,0,0
53701.23374461855,8.453380013574455e-05,0.0010651930030051873,0,0
53801.2670889998,8.452182653957554e-05,0.001064320144297313,0,0
53901.30043338104,8.299642691833814e-05,0.0010644696457632727,0,0
54001.333777975444,8.142700803167223e-05,0.0010659867769674117,0,0
54101.36712235669,8.038714350575098e-05,0.0010681378006519367,0,0
54201.400466737934,7.981405814360265e-05,0.0010705008968653602,0,0
54301.43381133235,7.952984406260002e-05,0.0010728919269588346,0,0
54401.46715571359,7.942263383894765e-05,0.0010751937672231287,0,0
54501.50050009484,7.943326819819302e-05,0.001077472104778273,0,0
54601.53384468924,7.952189074791653e-05,0.0010797165559463015,0,0
54701.56718907049,7.965275017655303e-05,0.0010818962283405936,0,0
54801.60053345173,7.981655380796248e-05,0.001084016948339664,0,0
54901.63387804614,8.000282487926722e-05,0.0010861591340839893,0,0
55001.667222427386,8.020152712846273e-05,0.001088271404648516,0,0
55101.700566808635,8.041350060102921e-05,0.0010903297286977297,0,0
55201.73391140304,8.063992049670909e-05,0.0010924589447456458,0,0
55301.76725578428,8.0863096554291e-05,0.0010944999557478663,0,0
55401.80060016553,8.110097715402617e-05,0.0010965354055417732,0,0
55501.83394454677,8.134202407561152e-05,0.0010985828215194053,0,0
55601.867289141184,8.158653652093873e-05,0.0011006748989128734,0,0
55701.900633522426,8.183270075610149e-05,0.0011026741923116316,0,0
55801.933977903675,8.208454244418505e-05,0.0011047265494818642,0,0
55901.96732249808,8.233684306332472e-05,0.0011067473129202094,0,0
56002.00066687933,8.258865744175685e-05,0.001108795729588692,0,0
56102.03401126057,8.28461160077757e-05,0.0011108218328535122,0,0
56202.067355854975,8.310156762848355e-05,0.0011128213452556678,0,0
56302.100700236224,8.336093175430624e-05,0.0011148154739396635,0,0
56402.13404461747,8.361966206042435e-05,0.0011168286551966429,0,0
56502.16738921188,8.388195659833442e-05,0.0011188720408152053,0,0
56602.20073359312,8.414704762142352e-05,0.001120906476875152,0,0
56702.23407797437,8.440345392766016e-05,0.0011228593587803161,0,0
56802.26742256877,8.466824601913503e-05,0.0011248595279039109,0,0
56902.30076695002,8.493011417765382e-05,0.0011268677720395572,0,0
57002.33411133126,8.518902092292325e-05,0.001128869538463007,0,0
57102.36745571251,8.546458084894905e-05,0.0011309121242383156,0,0
57202.40080030692,8.572702277631987e-05,0.0011329008581248301,0,0
57302.434144688166,8.599329460723679e-05,0.0011349003443121286,0,0
57402.46748906941,8.625766126084374e-05,0.0011369139168131194,0,0
57502.50083366381,8.652904250023678e-05,0.001138940722377731,0,0
57602.53417804506,8.679492575365168e-05,0.00114093460863862,0,0
57702.56752242631,8.706761896616147e-05,0.0011429084002476486,0,0
57802.600867020716,8.733953708461802e-05,0.001144908030028892,0,0
57902.63421140196,8.760891960676576e-05,0.0011469112110638214,0,0
58002.667555783206,8.788439934729765e-05,0.0011489555069397787,0,0
58102.70090037761,8.815257585260329e-05,0.0011508943659143843,0,0
58202.73424475886,8.841506416163179e-05,0.00115285117363805,0,0
58302.7675891401,8.868839427637724e-05,0.001154840088902608,0,0
58402.800933734514,8.89619351082931e-05,0.0011568123118283439,0,0
58502.834278115755,8.923737079702707e-05,0.001158836946851118,0,0
58602.867622497004,8.951483297452425e-05,0.0011608336455982934,0,0
58702.90096709141,8.978597797982159e-05,0.00116281108884341,0,0
58802.93431147265,9.006193226797039e-05,0.001164835626814695,0,0
58902.9676558539,9.033332633151372e-05,0.0011668183788201211,0,0
59003.00100023515,9.061243168349714e-05,0.0011688122689210026,0,0
59103.03434482955,9.088614314736322e-05,0.0011708032690590357,0,0
59203.067689210795,9.116888983615419e-05,0.0011727871821858302,0,0
59303.101033592044,9.144056845392162e-05,0.001174782972993154,0,0
59403.13437818645,9.172132650715711e-05,0.001176773743034784,0,0
59503.1677225677,9.200904813490827e-05,0.0011788084533469374,0,0
59603.20106694894,9.228917744212788e-05,0.0011807807807017094,0,0
59703.23441154335,9.256993687891004e-05,0.0011827582955032854,0,0
59803.26775592459,9.286186208823902e-05,0.0011847434555628175,0,0
59903.30110030584,9.314751094957473e-05,0.0011867198983593064,0,0
60003.33444490025,9.344123574806373e-05,0.001188691214097177,0,0
60103.36778928149,9.373019689063493e-05,0.001190699007940381,0,0
60203.40113366274,9.403071811245198e-05,0.0011927010746003036,0,0
60303.43447825714,9.432121140091451e-05,0.0011946452228738763,0,0
60403.46782263839,9.46068306911637e-05,0.0011966129259722434,0,0
60503.50116701963,9.488268651895969e-05,0.0011986175101055185,0,0
60603.53451140088,9.514934170726113e-05,0.0012006225034935445,0,0
60703.56785599529,9.54228722802673e-05,0.0012026070159718036,0,0
60803.601200376535,9.569857798024753e-05,0.0012046057545875013,0,0
60903.63454475778,9.597036605489537e-05,0.001206601110018959,0,0
61003.66788935219,9.624869292443627e-05,0.001208617459698426,0,0
61103.70123373343,9.652787112473698e-05,0.0012105947544880252,0,0
61203.73457811468,9.681832615697053e-05,0.001212609661787916,0,0
61303.767922709085,9.709679418385385e-05,0.0012145777297347963,0,0
61403.801267090326,9.737424390600965e-05,0.0012166072942399744,0,0
61503.834611471575,9.767074885260519e-05,0.0012186096718400394,0,0
61603.86795606598,9.79670017295853e-05,0.0012206333351067002,0,0
61703.90130044723,9.82554498514044e-05,0.0012226673363422836,0,0
61803.93464482847,9.85510007672952e-05,0.0012247153540286104,0,0
61903.96798942288,9.884342677673147e-05,0.0012266893009417804,0,0
62004.001333804124,9.913212927955112e-05,0.0012286909317974983,0,0
62104.03467818537,9.942529802022784e-05,0.0012306468807820662,0,0
62204.06802277978,9.972419745847676e-05,0.0012327060818582375,0,0
62304.10136716103,0.0001000220967512194,0.0012347388359811268,0,0
62404.13471154227,0.00010032050416687675,0.0012367267079440596,0,0
62504.16805592352,0.0001006222713593808,0.00123877017919335,0,0
62604.20140051792,0.00010092216261243328,0.0012407656262201144,0,0
62704.234744899164,0.00010122835125132588,0.001242830007648821,0,0
62804.26808928041,0.0001015238695977614,0.0012447919071568222,0,0
62904.30143387482,0.00010183686858440094,0.0012468729303113124,0,0
63004.33477825607,0.00010214161628542499,0.001248860193229058,0,0
63104.36812263731,0.00010245842309291923,0.0012509403569389917,0,0
63204.40146723172,0.00010277415567563021,0.0012529587264707139,0,0
63304.43481161296,0.00010308371985504329,0.0012549837695049629,0,0
63404.46815599421,0.00010340600553819156,0.001257030675810546,0,0
63504.501500588616,0.00010373102741070599,0.0012591127058339494,0,0
63604.534844969865,0.00010405831443447065,0.0012611894390638324,0,0
63704.56818935111,0.00010438895456367735,0.0012632450887125192,0,0
63804.60153394552,0.00010473148265285052,0.0012653315660673614,0,0
63904.63487832676,0.00010507698090336622,0.0012673880216634659,0,0
64004.668222708,0.0001054374734909042,0.0012694855165789297,0,0
64104.70156708925,0.00010580584692867076,0.001271609907873178,0,0
64204.734911683656,0.00010618168533019664,0.0012736667779263608,0,0
64304.768256064905,0.00010658177495810194,0.0012757938779449994,0,0
64404.801600446146,0.00010700839095979583,0.0012779120899427435,0,0
64504.83494504056,0.00010746825421162044,0.0012800729528775628,0,0
64604.8682894218,0.00010797129143248474,0.0012822507758572237,0,0
64704.90163380305,0.0001085170543176828,0.0012844137571723915,0,0
64804.934978397454,0.00010912522033322173,0.0012865509801388718,0,0
64904.9683227787,0.00010980720150243046,0.0012887081014598557,0,0
65005.001667159944,0.00011055025085870405,0.0012907578869671402,0,0
65105.03501175436,0.0001113614934402878,0.001292816055308507,0,0
65205.0683561356,0.00011222979587576542,0.0012947860601352117,0,0
65305.10170051684,0.00011318410375925212,0.0012966990945801117,0,0
65405.13504511125,0.00011425625242738352,0.0012984315391836693,0,0
65505.16838949249,0.00011545934463037848,0.0012999874228605097,0,0
65605.20173387374,0.00011669628623832751,0.0013011254731360412,0,0
65705.23507825499,0.00011768868855042741,0.0013017602686160184,0,0
65805.26842284939,0.00011806153797451276,0.0013020643750766832,0,0
65905.30176723065,0.00011767689465658191,0.0013024410900364582,0,0
66005.33511161189,0.00011682207783605005,0.0013034453195918997,0,0
66105.3684562063,0.00011589833590838213,0.0013049653031862204,0,0
66205.40180058754,0.00011516216431457035,0.001306953447976074,0,0
66305.43514496878,0.00011465395115729874,0.001309131683214329,0,0
66405.4684895632,0.00011434824657499847,0.00131136709907806,0,0
66505.50183394444,0.00011420626800385439,0.001313620092708751,0,0
66605.53517832568,0.00011417312304927888,0.0013158557759370625,0,0
66705.56852292009,0.00011423001484877963,0.0013181299543066028,0,0
66805.60186730133,0.00011435582590100228,0.0013203626019103287,0,0
66905.63521168257,0.00011451136440585545,0.0013225631897595775,0,0
67005.66855627699,0.00011470546478240598,0.001324732394591372,0,0
67105.70190065823,0.00011492280488133563,0.0013268876194106093,0,0
67205.73524503948,0.00011515749268845557,0.0013290171077086264,0,0
67305.76858963388,0.0001153990813869418,0.0013311147387282713,0,0
67405.80193401514,0.00011566295677747095,0.0013332373920107662,0,0
67505.83527839638,0.00011593963640878489,0.0013353889840900704,0,0
67605.86862277762,0.00011621577907687294,0.0013374562529697557,0,0
67705.90196737203,0.00011649960198913155,0.0013395334453913928,0,0
67805.93531175327,0.00011678813560140865,0.001341615116114839,0,0
67905.96865613452,0.0001170925570919581,0.0013437176067142523,0,0
68006.00200072893,0.00011739789178284753,0.0013457731587558416,0,0
68106.03534511017,0.00011771052108950843,0.0013478449958487116,0,0
68206.06868949141,0.00011804644762263507,0.0013499739060144362,0,0
68306.10203408582,0.00011839592956933758,0.0013520807890290219,0,0
68406.13537846706,0.00011878738307900715,0.0013541850854182382,0,0
68506.16872284832,0.00011921313203963866,0.0013561946684678438,0,0
68606.20206744272,0.00011968896308837332,0.0013582600985099825,0,0
68706.23541182397,0.00012013505879169261,0.001360077023683041,0,0
68806.26875620522,0.00012050634080039416,0.0013619126079209005,0,0
68906.30210079963,0.00012078007581945041,0.00136378273950896,0,0
69006.33544518087,0.00012100914084290241,0.001365718110003349,0,0
69106.36878956211,0.00012124571071758669,0.001367706918566488,0,0
69206.40213394335,0.00012148992760805675,0.0013697121078816937,0,0
69306.43547853777,0.00012175573467676779,0.0013716813891230632,0,0
69406.468822919,0.00012203886587316184,0.001373697641484185,0,0
69506.50216730025,0.00012232651386708058,0.001375775539853332,0,0
69606.53551189466,0.00012262526348816172,0.0013777987519462403,0,0
69706.5688562759,0.00012291988851504304,0.0013797669584715373,0,0
69806.60220065716,0.00012321700331902627,0.0013817523488881712,0,0
69906.63554525156,0.0001235277705429141,0.0013838025928085368,0,0
70006.66888963281,0.00012383759822570377,0.0013858073108837733,0,0
70106.70223401405,0.00012414624472227727,0.0013878114446972364,0,0
70206.73557860847,0.00012445725826400333,0.0013898061314541505,0,0
70306.76892298971,0.0001247694691052695,0.001391796029274971,0,0
70406.80226737095,0.0001250853537221073,0.0013938176045110422,0,0
70506.83561196536,0.00012541135398382226,0.0013958537841271927,0,0
70606.8689563466,0.0001257279713829545,0.0013978494615808513,0,0
70706.90230072784,0.00012605434378451473,0.001399894859477743,0,0
70806.93564510909,0.00012637189141488552,0.0014018476888149757,0,0
70906.9689897035,0.0001267019372471571,0.00140390967517863,0,0
71007.00233408474,0.0001270268549889669,0.001405863952292092,0,0
71107.035678466,0.00012735168782329688,0.001407884306351153,0,0
71207.0690230604,0.00012767973812280694,0.0014099213855511355,0,0
71307.10236744165,0.0001280110456182777,0.0014119457487596738,0,0
71407.13571182289,0.00012833830023133226,0.0014139241454395157,0,0
71507.1690564173,0.0001286670891518133,0.001415939415532443,0,0
71607.20240079855,0.00012899153578160852,0.0014179318097839798,0,0
71707.23574517979,0.00012932033511837594,0.001419915783148426,0,0
71807.2690897742,0.00012965766350246674,0.001421936373917818,0,0
71907.30243415544,0.0001299936633909374,0.001423944857507625,0,0
72007.33577853668,0.00013032338313932003,0.0014259290382535395,0,0
72107.3691231311,0.00013065822778067995,0.0014279180890269842,0,0
72207.40246751234,0.00013098921273323804,0.0014299060515321675,0,0
72307.43581189358,0.00013132320459870926,0.0014319196646808293,0,0
72407.46915648799,0.00013165935099738375,0.0014339358904603382,0,0
72507.50250086923,0.00013199370581874203,0.0014359415369138739,0,0
72607.53584525049,0.0001323341127967385,0.001437927528617706,0,0
72707.56918963173,0.0001326756999352655,0.0014399690904856753,0,0
72807.60253422614,0.00013301194621478886,0.0014419304960510892,0,0
72907.63587860738,0.00013334871679555418,0.0014439161675836073,0,0
73007.66922298862,0.00013369324413979052,0.0014459543766827843,0,0
73107.70256758304,0.00013403129631791205,0.0014479260611009494,0,0
73207.73591196428,0.00013436886118790126,0.0014499512244442304,0,0
73307.76925634552,0.00013470656787553095,0.0014519269177983877,0,0
73407.80260093993,0.0001350518619434315,0.0014539760927236673,0,0
73507.83594532117,0.000135388363143826,0.0014559486482890588,0,0
73607.86928970242,0.00013573774472591728,0.0014580027002985038,0,0
73707.90263429683,0.00013607809913256103,0.001460010366705563,0,0
73807.93597867807,0.00013642271138017176,0.0014619646299589251,0,0
73907.96932305933,0.000136765611555819,0.0014640017635223024,0,0
74008.00266765372,0.00013710170496848735,0.001465921041253767,0,0
74108.03601203498,0.00013745316444542253,0.0014679703789332655,0,0
74208.06935641622,0.00013780068737281637,0.0014699799577699644,0,0
74308.10270079746,0.00013815837897214825,0.0014720632810571292,0,0
74408.13604539188,0.00013849901046993817,0.0014739833546693756,0,0
74508.16938977312,0.00013885244561458675,0.0014759929549257313,0,0
74608.20273415436,0.00013920420588702407,0.0014780088669596862,0,0
74708.23607874877,0.00013955685739959,0.0014800283293797028,0,0
74808.26942313001,0.0001399100439690707,0.00148198725890495,0,0
74908.30276751125,0.00014025527684684798,0.0014839673307088064,0,0
75008.33611210567,0.0001406090797391628,0.001485971145143997,0,0
75108.36945648691,0.00014097755612183454,0.0014880499513106728,0,0
75208.40280086816,0.00014133358107154686,0.0014900447594023045,0,0
75308.43614546256,0.00014169331656345497,0.0014920476346097823,0,0
75408.46948984382,0.00014205802048713778,0.0014940396837252667,0,0
75508.50283422506,0.0001424320667181056,0.0014960871215440514,0,0
75608.53617881946,0.00014279767123556855,0.00149806322609143,0,0
75708.56952320071,0.00014317356128334567,0.001500055401726169,0,0
75808.60286758195,0.0001435485293204233,0.0015020139827666612,0,0
75908.63621217637,0.00014393497861974616,0.0015040345426799518,0,0
76008.66955655761,0.0001443214929060768,0.001506124834685114,0,0
76108.70290093885,0.0001447056299923506,0.0015081006062486611,0,0
76208.73624532009,0.00014508367469717967,0.001510095993033668,0,0
76308.7695899145,0.00014545692220637393,0.0015120166586177792,0,0
76408.80293429575,0.00014582286050071069,0.0015140412788259298,0,0
76508.836278677,0.0001461840914539956,0.0015160000863431607,0,0
76608.8696232714,0.00014654251179446135,0.0015180174703058828,0,0
76708.90296765266,0.00014688452145528136,0.001519980131975676,0,0
76808.9363120339,0.0001472360572914033,0.0015219862674938048,0,0
76908.9696566283,0.0001475867443873232,0.001523981754321827,0,0
77009.00300100955,0.00014793813106246984,0.0015260177117754135,0,0
77109.03634539079,0.0001482867999490107,0.001528030058785219,0,0
77209.0696899852,0.00014864915500044718,0.0015301131654994308,0,0
77309.10303436645,0.00014901037530890728,0.0015320762915858855,0,0
77409.13637874769,0.0001493701550004106,0.0015340624731832104,0,0
77509.1697233421,0.00014973667778848097,0.0015360802809443453,0,0
77609.20306772334,0.00015011563169970243,0.0015381553405822421,0,0
77709.23641210458,0.00015048236018599422,0.0015401782862657788,0,0
77809.26975648584,0.0001508656964094868,0.0015422538315155608,0,0
77909.30310108024,0.00015124880240725329,0.0015443035876631906,0,0
78009.3364454615,0.00015162536498188257,0.001546330758865936,0,0
78109.36978984273,0.00015201647226481096,0.0015483565351676104,0,0
78209.40313443713,0.00015239413121533954,0.0015503833439926573,0,0
78309.43647881839,0.00015278639195333675,0.0015524485000145483,0,0
78409.46982319963,0.0001531691639415856,0.001554475257052389,0,0
78509.50316779404,0.0001535699316476359,0.00155654429445849,0,0
78609.53651217528,0.0001539614699039874,0.0015585967225974148,0,0
78709.56985655653,0.00015436819757744344,0.0015606555463115704,0,0
78809.60320115094,0.00015476144411503214,0.001562670349104421,0,0
78909.63654553218,0.000155164029248552,0.0015647567034324035,0,0
79009.66988991342,0.0001555526290905518,0.0015667531231650159,0,0
79109.70323450783,0.0001559589565481549,0.001568879745714305,0,0
79209.73657888907,0.00015635669328523333,0.0015709314293942665,0,0
79309.76992327033,0.00015676035921709388,0.0015730416622771234,0,0
79409.80326765157,0.0001571518750677895,0.0015750432837675582,0,0
79509.83661224597,0.00015754857948540102,0.0015770623673448494,0,0
79609.86995662723,0.00015794906692608504,0.0015791015582243529,0,0
79709.90330100847,0.0001583517555443808,0.0015811432567767445,0,0
79809.93664560288,0.00015874274264828412,0.0015831756204028196,0,0
79909.96998998412,0.00015914639809953905,0.001585248365050995,0,0
80010.00333436536,0.00015955322380706223,0.001587349971310907,0,0
