Frequency (Hz),Impedance (ohms),Phase (Radians),Temperature (C),Humidity (%)
49999.999999954525,0.00011004213686792781,0.001293894661644514,0,0
50100.03334454893,0.00010481179332760387,0.0012859546380213928,0,0
50200.06668893018,0.00010516666158849776,0.001288661672857359,0,0
50300.10003331142,0.0001055312993653748,0.001291391988232384,0,0
50400.13337769267,0.00010589749757147757,0.0012941032522489628,0,0
50500.166722287075,0.00010627397799887786,0.0012968117737537364,0,0
50600.20006666832,0.00010664779312144147,0.001299566135205001,0,0
50700.233411049565,0.00010702884702593594,0.0013022525931751902,0,0
50800.26675564398,0.00010740815377440526,0.001304947304902494,0,0
50900.30010002522,0.00010779794717243181,0.0013076751325011543,0,0
51000.33344440647,0.00010818672908630119,0.001310323045090674,0,0
51100.36678900087,0.00010858419076239324,0.0013130660542423924,0,0
51200.40013338212,0.00010897683516773867,0.0013157450359053816,0,0
51300.43347776336,0.00010937715103358068,0.0013184351782768084,0,0
51400.46682235777,0.0001097805374445353,0.0013211523350862488,0,0
51500.50016673902,0.00011017814005969513,0.0013237864491924731,0,0
51600.53351112026,0.00011059292421033031,0.001326534964978363,0,0
51700.56685571467,0.00011099898829456368,0.0013292198903647428,0,0
51800.60020009591,0.00011141216696312239,0.0013318707073492406,0,0
51900.63354447716,0.00011182760873908662,0.001334557765603523,0,0
52000.6668888584,0.00011224612922596273,0.0013372320350926266,0,0
52100.700233452815,0.00011266406305072761,0.0013399286162255107,0,0
52200.73357783406,0.00011308066474720708,0.0013425920955421476,0,0
52300.766922215305,0.00011349544655087634,0.0013452648058692503,0,0
52400.80026680971,0.0001139230001127744,0.0013479591283608067,0,0
52500.83361119096,0.00011434538227687308,0.0013506372995966153,0,0
52600.8669555722,0.00011476976117869155,0.0013532740443362155,0,0
52700.900300166606,0.00011519980285428793,0.0013559556693753057,0,0
52800.933644547855,0.00011562106853316308,0.0013586302999926733,0,0
52900.966988929096,0.00011604685807372513,0.001361268860702298,0,0
53001.00033352351,0.00011648480357381483,0.0013639651427701394,0,0
53101.03367790475,0.00011692330336225507,0.0013666712777786819,0,0
53201.067022286,0.00011736321566495884,0.001369319816424444,0,0
53301.100366880404,0.00011781769072844052,0.0013720016479048473,0,0
53401.13371126165,0.00011827878312943299,0.0013746960076837392,0,0
53501.167055642894,0.00011873473019626435,0.0013773671404070259,0,0
53601.2004002373,0.00011920812438205742,0.0013800282995637735,0,0
53701.23374461855,0.00011966875704252999,0.001382620223852884,0,0
53801.2670889998,0.00012012648323407323,0.0013853166429520609,0,0
53901.30043338104,0.00012060453509761357,0.0013880047658024078,0,0
54001.333777975444,0.00012109109651497502,0.0013906521885000802,0,0
54101.36712235669,0.0001215891540085212,0.0013933015318274042,0,0
54201.400466737934,0.00012209728684276533,0.001395953122748894,0,0
54301.43381133235,0.000122605770501888,0.0013986050200253896,0,0
54401.46715571359,0.00012310836486328103,0.0014012584378272162,0,0
54501.50050009484,0.00012361963539528616,0.0014038489022905143,0,0
54601.53384468924,0.00012412911769594105,0.0014064718167847749,0,0
54701.56718907049,0.00012462852897212573,0.0014090295755394622,0,0
54801.60053345173,0.00012512977854803916,0.0014116592323167208,0,0
54901.63387804614,0.000125623191922185,0.0014142135994127736,0,0
55001.667222427386,0.00012608732631741527,0.0014167545506877214,0,0
55101.700566808635,0.0001265548077878221,0.0014193686000224513,0,0
55201.73391140304,0.0001270008209374699,0.0014219337189902658,0,0
55301.76725578428,0.00012744843317696219,0.0014245168428126272,0,0
55401.80060016553,0.00012788957166673016,0.0014270810085674117,0,0
55501.83394454677,0.0001283320428143905,0.0014296635159807237,0,0
55601.867289141184,0.0001287498739138933,0.0014322500756756835,0,0
55701.900633522426,0.0001291335466088229,0.0014348014077759732,0,0
55801.933977903675,0.00012951493888559154,0.0014374694590328868,0,0
55901.96732249808,0.0001298984763282271,0.0014401180722334772,0,0
56002.00066687933,0.00013028070970558418,0.0014428180582473774,0,0
56102.03401126057,0.00013069560679317813,0.0014455909540266507,0,0
56202.067355854975,0.00013113173223076445,0.0014482605822003967,0,0
56302.100700236224,0.00013161075478230948,0.001451069680139286,0,0
56402.13404461747,0.00013213193875883904,0.0014538524623633963,0,0
56502.16738921188,0.00013270927891705683,0.0014566092783147436,0,0
56602.20073359312,0.00013337128005803158,0.001459428152885781,0,0
56702.23407797437,0.00013410352558222333,0.0014622145307684469,0,0
56802.26742256877,0.00013492438685199016,0.0014649521165027003,0,0
56902.30076695002,0.00013582048897375443,0.0014676113323114403,0,0
57002.33411133126,0.0001367762731590281,0.001470151185747569,0,0
57102.36745571251,0.00013777038672199558,0.0014725788130429236,0,0
57202.40080030692,0.00013874948985035453,0.0014748174014004095,0,0
57302.434144688166,0.00013963907923881125,0.0014768507586750692,0,0
57402.46748906941,0.00014037509353458693,0.0014787656621984798,0,0
57502.50083366381,0.00014093179187012696,0.0014807547904772244,0,0
57602.53417804506,0.00014129704989262402,0.0014826188649204877,0,0
57702.56752242631,0.0001415135425226818,0.0014845627603724582,0,0
57802.600867020716,0.00014162664507869768,0.0014866084123479131,0,0
57902.63421140196,0.00014165957670091213,0.0014887414243504788,0,0
58002.667555783206,0.00014164020510204305,0.0014910217382794791,0,0
58102.70090037761,0.00014160469812673793,0.001493350168677715,0,0
58202.73424475886,0.0001415829422232793,0.001495821283814933,0,0
58302.7675891401,0.00014159163844710735,0.0014983561487934413,0,0
58402.800933734514,0.0001416391114658672,0.0015009430836977766,0,0
58502.834278115755,0.00014173556315730154,0.001503622074025381,0,0
58602.867622497004,0.00014188529887920024,0.0015062989035404509,0,0
58702.90096709141,0.00014206266613651355,0.001508945116928002,0,0
58802.93431147265,0.00014228053101155238,0.0015116929592003557,0,0
58902.9676558539,0.00014251209802727704,0.0015143592479871203,0,0
59003.00100023515,0.00014276615302466497,0.0015170567089482676,0,0
59103.03434482955,0.00014303570871047544,0.0015197830948632308,0,0
59203.067689210795,0.00014332339030500912,0.001522517682321132,0,0
59303.101033592044,0.00014363522811759358,0.0015252481468735544,0,0
59403.13437818645,0.0001439560332641525,0.0015279291664070651,0,0
59503.1677225677,0.00014429603497313471,0.0015306228037871054,0,0
59603.20106694894,0.00014463651615425678,0.0015333039551913635,0,0
59703.23441154335,0.00014499815205906556,0.0015359690967969165,0,0
59803.26775592459,0.00014536956848801725,0.0015386573340615106,0,0
59903.30110030584,0.0001457406106422742,0.0015413691946289329,0,0
60003.33444490025,0.00014611779778148814,0.0015440919004595704,0,0
60103.36778928149,0.00014649952901145633,0.0015467319293653962,0,0
60203.40113366274,0.00014689599255577997,0.0015494388524016215,0,0
60303.43447825714,0.00014729569844312262,0.0015521422581953235,0,0
60403.46782263839,0.00014770699288052915,0.0015548850256204986,0,0
60503.50116701963,0.00014811479782161316,0.0015575086372005913,0,0
60603.53451140088,0.00014852258573385134,0.0015601874760182018,0,0
60703.56785599529,0.00014893277693236485,0.001562830722672486,0,0
60803.601200376535,0.00014935831121403793,0.0015655721864094023,0,0
60903.63454475778,0.0001497861171999912,0.0015682962736306614,0,0
61003.66788935219,0.0001502132115543975,0.0015709479748773404,0,0
61103.70123373343,0.0001506486969216863,0.0015736316122494992,0,0
61203.73457811468,0.00015107986402834657,0.0015762546899865308,0,0
61303.767922709085,0.0001515195176235584,0.0015789345643730957,0,0
61403.801267090326,0.00015195064506375744,0.0015816078118385912,0,0
61503.834611471575,0.00015239131347951298,0.0015842956136582105,0,0
61603.86795606598,0.00015283357360346036,0.0015869448680539998,0,0
61703.90130044723,0.00015327525959179953,0.0015895991493641236,0,0
61803.93464482847,0.00015372789889205472,0.0015922845071998468,0,0
61903.96798942288,0.00015417978477655836,0.0015949885278048821,0,0
62004.001333804124,0.0001546273126634948,0.0015975803164756264,0,0
62104.03467818537,0.00015508680074768276,0.0016002985136635906,0,0
62204.06802277978,0.00015553754463688008,0.0016029456621425842,0,0
62304.10136716103,0.00015599362255493116,0.001605572385643499,0,0
62404.13471154227,0.0001564626306124097,0.0016082579600076989,0,0
62504.16805592352,0.0001569294782932187,0.0016109650418431975,0,0
62604.20140051792,0.0001573984827495072,0.00161362560497734,0,0
62704.234744899164,0.00015787869121609686,0.001616209211184679,0,0
62804.26808928041,0.0001583385099638365,0.0016188532811080847,0,0
62904.30143387482,0.0001587963388347973,0.0016215285454705744,0,0
63004.33477825607,0.0001592648456008794,0.0016242105223260163,0,0
63104.36812263731,0.00015973597457247157,0.0016269102661083986,0,0
63204.40146723172,0.00016020860870189958,0.0016295327024565896,0,0
63304.43481161296,0.00016067940950744033,0.0016322081895598314,0,0
63404.46815599421,0.0001611591553357256,0.0016348668187365664,0,0
63504.501500588616,0.0001616429832575999,0.0016375634767219795,0,0
63604.534844969865,0.00016211909491861383,0.0016401632932013374,0,0
63704.56818935111,0.00016260020710188512,0.00164284742236276,0,0
63804.60153394552,0.0001630789476576042,0.0016454942267416508,0,0
63904.63487832676,0.00016357112959925122,0.0016481592015381396,0,0
64004.668222708,0.00016405796537077229,0.001650811603757856,0,0
64104.70156708925,0.00016455513309053034,0.001653526512315569,0,0
64204.734911683656,0.00016504668237021807,0.0016562077495962003,0,0
64304.768256064905,0.00016554292321770432,0.0016588491576113695,0,0
64404.801600446146,0.00016602957517389537,0.0016614829623553243,0,0
64504.83494504056,0.00016653487877970656,0.0016641849346591823,0,0
64604.8682894218,0.00016702392357577963,0.0016668226368349826,0,0
64704.90163380305,0.00016753627912997977,0.001669508222089652,0,0
64804.934978397454,0.000168029262153367,0.0016721332412738548,0,0
64904.9683227787,0.00016853039358383633,0.0016748115165117294,0,0
65005.001667159944,0.00016903836783297642,0.0016774451411606032,0,0
65105.03501175436,0.00016954641670536953,0.0016801665564104104,0,0
65205.0683561356,0.00017004901579627523,0.0016827799168251073,0,0
65305.10170051684,0.00017055670090468603,0.0016853971089607095,0,0
65405.13504511125,0.00017106953416019582,0.0016881312063851243,0,0
65505.16838949249,0.00017157812203418547,0.0016908080430362022,0,0
65605.20173387374,0.00017206985541795526,0.00169335513734053,0,0
65705.23507825499,0.0001725720595630756,0.001696056788038893,0,0
65805.26842284939,0.0001730702805566694,0.0016987037211191006,0,0
65905.30176723065,0.00017356831140907312,0.0017013174623711018,0,0
66005.33511161189,0.00017406810301758794,0.00170398479244028,0,0
66105.3684562063,0.00017456639628610037,0.0017066243419923406,0,0
66205.40180058754,0.00017506657227905388,0.0017092933946209305,0,0
66305.43514496878,0.00017556229391951428,0.001711905734667896,0,0
66405.4684895632,0.00017606302161505028,0.0017145721855622664,0,0
66505.50183394444,0.00017657486930019125,0.0017172597211182585,0,0
66605.53517832568,0.0001770888772586804,0.0017199779319377838,0,0
66705.56852292009,0.00017759745454942746,0.001722589854033224,0,0
66805.60186730133,0.00017811577426341243,0.001725272611510748,0,0
66905.63521168257,0.00017863822814352326,0.0017279577728965267,0,0
67005.66855627699,0.00017916090986818192,0.0017306554180726043,0,0
67105.70190065823,0.00017967910169852476,0.0017333079066900897,0,0
67205.73524503948,0.00018021541993230115,0.0017359734730198414,0,0
67305.76858963388,0.0001807430543626943,0.0017386724441824065,0,0
67405.80193401514,0.0001812695419266294,0.0017413167719846814,0,0
67505.83527839638,0.00018180518979645722,0.001743976186101779,0,0
67605.86862277762,0.0001823563858386866,0.0017467219798505756,0,0
67705.90196737203,0.00018290183897022572,0.0017493952563329177,0,0
67805.93531175327,0.0001834438527388243,0.0017520418251092725,0,0
67905.96865613452,0.00018400369081254876,0.0017547403119080186,0,0
68006.00200072893,0.00018457005002555052,0.0017574342782895754,0,0
68106.03534511017,0.00018512355551031435,0.0017600489173990545,0,0
68206.06868949141,0.0001856998169414061,0.0017627539943221389,0,0
68306.10203408582,0.0001862620244483039,0.0017653476504463077,0,0
68406.13537846706,0.00018683311907015415,0.0017679558990467176,0,0
68506.16872284832,0.00018738241711008368,0.0017705559535891625,0,0
68606.20206744272,0.00018792727147724146,0.0017731919420870725,0,0
68706.23541182397,0.00018845144946863523,0.0017758181804968143,0,0
68806.26875620522,0.00018895957080343053,0.0017784596003775045,0,0
68906.30210079963,0.0001894660335291884,0.001781071668613655,0,0
69006.33544518087,0.00018997011737711668,0.0017837747343217294,0,0
69106.36878956211,0.00019048422583775064,0.001786475250862147,0,0
69206.40213394335,0.0001909894829325815,0.0017891381583826154,0,0
69306.43547853777,0.00019151186863641104,0.0017918624328315423,0,0
69406.468822919,0.00019203464792574365,0.0017944800935672898,0,0
69506.50216730025,0.00019256832189321445,0.0017971710855362796,0,0
69606.53551189466,0.00019309563771100752,0.0017998649496079118,0,0
69706.5688562759,0.00019363035885636083,0.001802524465958298,0,0
69806.60220065716,0.00019418006657869543,0.001805263081294191,0,0
69906.63554525156,0.00019472979824760927,0.0018080141539243,0,0
70006.66888963281,0.00019527113680779318,0.001810659832498528,0,0
70106.70223401405,0.0001958275550435547,0.0018133861084926913,0,0
70206.73557860847,0.0001963780109984726,0.0018160623822660712,0,0
70306.76892298971,0.00019692335020979058,0.001818717019052582,0,0
70406.80226737095,0.0001974705063785007,0.0018213534068911936,0,0
70506.83561196536,0.00019803018169390086,0.001824030365487337,0,0
70606.8689563466,0.00019858609314923951,0.0018267240881669304,0,0
70706.90230072784,0.00019914234378426334,0.0018294083562591568,0,0
70806.93564510909,0.00019971189245144105,0.0018321696831064016,0,0
70906.9689897035,0.00020026065375394614,0.0018347845702539145,0,0
71007.00233408474,0.0002008277836544528,0.0018375162811027253,0,0
71107.035678466,0.00020138442349580132,0.0018401637821151612,0,0
71207.0690230604,0.0002019556935119583,0.0018428879381586303,0,0
71307.10236744165,0.00020252143806689807,0.0018456157286588068,0,0
71407.13571182289,0.00020308995872536252,0.00184828979780734,0,0
71507.1690564173,0.00020365179712020635,0.0018509171594352921,0,0
71607.20240079855,0.00020422766426923195,0.0018536663783112778,0,0
71707.23574517979,0.00020479671835268298,0.001856390278555303,0,0
71807.2690897742,0.00020537215805831372,0.0018590976494966339,0,0
71907.30243415544,0.00020594751775635477,0.0018617794635143793,0,0
72007.33577853668,0.0002065250206414215,0.0018645195657722511,0,0
72107.3691231311,0.000207099454472349,0.0018671962554088354,0,0
72207.40246751234,0.00020767296745716478,0.0018698385990703712,0,0
72307.43581189358,0.00020825590144789142,0.0018725715674919542,0,0
72407.46915648799,0.000208845798106507,0.0018753126553461962,0,0
72507.50250086923,0.00020942781840560466,0.0018780052339551633,0,0
72607.53584525049,0.00021001428861985605,0.0018807201366803582,0,0
72707.56918963173,0.00021060371870711765,0.0018834341298235096,0,0
72807.60253422614,0.0002111837798425306,0.0018861146347481318,0,0
72907.63587860738,0.0002117791354385377,0.0018888207039020417,0,0
73007.66922298862,0.00021237034631254621,0.0018915506812181774,0,0
73107.70256758304,0.0002129672249361741,0.0018942763674533296,0,0
73207.73591196428,0.00021356097730675013,0.001896986465695663,0,0
73307.76925634552,0.00021416606854374255,0.001899762592924065,0,0
73407.80260093993,0.00021476757920160677,0.0019024569001452893,0,0
73507.83594532117,0.00021536273965184403,0.0019051267904135478,0,0
73607.86928970242,0.0002159666536171952,0.0019078928702828339,0,0
73707.90263429683,0.000216576342735622,0.0019105966494521306,0,0
73807.93597867807,0.00021718397502579014,0.0019133182745501149,0,0
73907.96932305933,0.00021778932053635638,0.0019160097664769045,0,0
74008.00266765372,0.00021840587961546493,0.00191876664013077,0,0
74108.03601203498,0.0002190325294882973,0.001921571823648654,0,0
74208.06935641622,0.00021965711622138001,0.0019243213187242127,0,0
74308.10270079746,0.00022026606732713117,0.0019270179386100888,0,0
74408.13604539188,0.0002208872807482847,0.0019296998906615905,0,0
74508.16938977312,0.00022151223654962956,0.0019324412384946546,0,0
74608.20273415436,0.0002221505551703361,0.0019352172598406808,0,0
74708.23607874877,0.00022279225714976505,0.001938019823781246,0,0
74808.26942313001,0.00022341496702924275,0.0019406933377436972,0,0
74908.30276751125,0.0002240611496663423,0.0019434597946007155,0,0
75008.33611210567,0.00022470971659776764,0.0019462334139406917,0,0
75108.36945648691,0.000225358392724007,0.0019490066135268366,0,0
75208.40280086816,0.00022601290671589395,0.001951796596600982,0,0
75308.43614546256,0.00022667063214269555,0.0019545434422954915,0,0
75408.46948984382,0.00022733589285807218,0.001957303586698191,0,0
75508.50283422506,0.00022799899191586965,0.001960077549845412,0,0
75608.53617881946,0.00022866913624107206,0.0019628565838041255,0,0
75708.56952320071,0.00022933298030728273,0.0019655665680714984,0,0
75808.60286758195,0.00023002188642049526,0.001968392468425334,0,0
75908.63621217637,0.00023070217822241214,0.001971195872273845,0,0
76008.66955655761,0.00023139251635023294,0.0019739831407821866,0,0
76108.70290093885,0.0002320827527326328,0.001976762311167361,0,0
76208.73624532009,0.00023278931152412638,0.001979526686177327,0,0
76308.7695899145,0.00023349608682562238,0.001982315112993414,0,0
76408.80293429575,0.0002342181778253594,0.001985180435301905,0,0
76508.836278677,0.000234939148259026,0.001987959604555336,0,0
76608.8696232714,0.00023567669002318308,0.0019908196293655324,0,0
76708.90296765266,0.0002364049141621995,0.001993538984424009,0,0
76808.9363120339,0.000237154170821876,0.001996394018398143,0,0
76908.9696566283,0.00023790895662880642,0.001999192990167758,0,0
77009.00300100955,0.00023867768562829886,0.0020020401206732067,0,0
77109.03634539079,0.00023945118798837905,0.002004816321747558,0,0
77209.0696899852,0.00024023818177129042,0.0020076735282410028,0,0
77309.10303436645,0.00024103211410787098,0.0020104405585589617,0,0
77409.13637874769,0.00024184854711615286,0.002013301078812983,0,0
77509.1697233421,0.00024267112902601944,0.002016108651798782,0,0
77609.20306772334,0.0002435038096046043,0.002018922265273445,0,0
77709.23641210458,0.00024437827874371123,0.00202189329927126,0,0
77809.26975648584,0.00024525536567425313,0.002024787505270074,0,0
77909.30310108024,0.0002461368068075306,0.0020275543188159645,0,0
78009.3364454615,0.00024705287012500893,0.002030460956444272,0,0
78109.36978984273,0.00024798416413676964,0.0020333171273420763,0,0
78209.40313443713,0.0002489232031634867,0.0020361012905900523,0,0
78309.43647881839,0.00024990381807387307,0.0020389736781281594,0,0
78409.46982319963,0.00025090054610694246,0.0020418277341120086,0,0
78509.50316779404,0.0002519178413585954,0.002044602842998734,0,0
78609.53651217528,0.000252981777520789,0.00204750969693177,0,0
78709.56985655653,0.0002540649239296542,0.0020503070745449587,0,0
78809.60320115094,0.00025518141643697084,0.002053157428309788,0,0
78909.63654553218,0.0002563252519725852,0.002055902208377996,0,0
79009.66988991342,0.00025751057884635547,0.0020586399710461113,0,0
79109.70323450783,0.00025872822185360277,0.002061387870388055,0,0
79209.73657888907,0.00025999394256204033,0.0020641768695121273,0,0
79309.76992327033,0.00026129770766287206,0.0020668620620051263,0,0
79409.80326765157,0.0002626399889831504,0.002069578028789253,0,0
79509.83661224597,0.0002640164702622997,0.0020721495544964667,0,0
79609.86995662723,0.00026543096705795133,0.0020747064669242895,0,0
79709.90330100847,0.00026688021279038627,0.002077162400359968,0,0
79809.93664560288,0.00026835587938235856,0.002079569473222571,0,0
