Frequency (Hz),Impedance (ohms),Phase (Radians),Temperature (C),Humidity (%)
49999.999999954525,8.445836260937025e-05,0.001008889257659989,0,0
50100.03334454893,7.999005318741031e-05,0.0010017157206198887,0,0
50200.06668893018,8.025642103797236e-05,0.0010037339556081962,0,0
50300.10003331142,8.051745284183733e-05,0.0010057119807941222,0,0
50400.13337769267,8.078739365107282e-05,0.0010077430034986581,0,0
50500.166722287075,8.104709181788854e-05,0.001009716528588151,0,0
50600.20006666832,8.13128617805892e-05,0.0010117328206410512,0,0
50700.233411049565,8.158159289173575e-05,0.0010137432260695735,0,0
50800.26675564398,8.184601788626299e-05,0.0010157772357152323,0,0
50900.30010002522,8.211789561500956e-05,0.0010177908352761245,0,0
51000.33344440647,8.237292983227341e-05,0.0010197393803885245,0,0
51100.36678900087,8.264192320078345e-05,0.0010217729402419253,0,0
51200.40013338212,8.290644724137862e-05,0.0010237937501173518,0,0
51300.43347776336,8.316704993776101e-05,0.0010257788448518584,0,0
51400.46682235777,8.342904119909073e-05,0.0010277764467669496,0,0
51500.50016673902,8.368994969281804e-05,0.0010298036401823936,0,0
51600.53351112026,8.395167236339751e-05,0.001031810050218901,0,0
51700.56685571467,8.420692950342315e-05,0.0010338062948664862,0,0
51800.60020009591,8.446681880358654e-05,0.001035804696191019,0,0
51900.63354447716,8.472978742295709e-05,0.0010378454585694905,0,0
52000.6668888584,8.498858850207244e-05,0.0010398272694196807,0,0
52100.700233452815,8.525465051081352e-05,0.0010418684145445045,0,0
52200.73357783406,8.551521535877789e-05,0.0010438751450506573,0,0
52300.766922215305,8.577959138793215e-05,0.0010458815392940686,0,0
52400.80026680971,8.60504148376847e-05,0.0010479100618969056,0,0
52500.83361119096,8.631256231525668e-05,0.0010499279706439476,0,0
52600.8669555722,8.658938504169949e-05,0.0010519830198634807,0,0
52700.900300166606,8.686077709561048e-05,0.001053995491439017,0,0
52800.933644547855,8.71333588765041e-05,0.0010560563568801082,0,0
52900.966988929096,8.740636071092888e-05,0.001058091295170922,0,0
53001.00033352351,8.76882711011742e-05,0.001060103045863212,0,0
53101.03367790475,8.798125056349584e-05,0.0010622144327738525,0,0
53201.067022286,8.82817642572315e-05,0.0010642929334011447,0,0
53301.100366880404,8.85863823858928e-05,0.0010663857167284377,0,0
53401.13371126165,8.892210100452319e-05,0.0010685453795350414,0,0
53501.167055642894,8.927439678137251e-05,0.0010706840592831206,0,0
53601.2004002373,8.968465658997968e-05,0.001072830935903471,0,0
53701.23374461855,9.018435064887394e-05,0.0010751613216876661,0,0
53801.2670889998,9.079589079470108e-05,0.0010774696459024328,0,0
53901.30043338104,9.163173464271189e-05,0.0010797364009008299,0,0
54001.333777975444,9.284327797307687e-05,0.0010819004019713278,0,0
54101.36712235669,9.450680388225776e-05,0.0010835540954453112,0,0
54201.400466737934,9.608064132642296e-05,0.0010840421051267698,0,0
54301.43381133235,9.625778596956974e-05,0.0010838591592929104,0,0
54401.46715571359,9.522055708776233e-05,0.001084521136637156,0,0
54501.50050009484,9.41952752725137e-05,0.0010861877385045246,0,0
54601.53384468924,9.359424188351518e-05,0.0010883152554373712,0,0
54701.56718907049,9.330965557097824e-05,0.001090553510361475,0,0
54801.60053345173,9.322770798533227e-05,0.0010928050199522344,0,0
54901.63387804614,9.325490150847876e-05,0.0010949778378231327,0,0
55001.667222427386,9.33602918098983e-05,0.0010971477640602527,0,0
55101.700566808635,9.350959795628972e-05,0.0010993047121724139,0,0
55201.73391140304,9.368647096994696e-05,0.0011014092764154468,0,0
55301.76725578428,9.388924004582066e-05,0.001103536136164988,0,0
55401.80060016553,9.411365063211742e-05,0.0011056052096042,0,0
55501.83394454677,9.433918563405612e-05,0.0011076545289671004,0,0
55601.867289141184,9.457758349755671e-05,0.001109709255506872,0,0
55701.900633522426,9.481420160204883e-05,0.001111749714992625,0,0
55801.933977903675,9.5065710293984e-05,0.0011137943351741144,0,0
55901.96732249808,9.531550551740827e-05,0.001115827551241482,0,0
56002.00066687933,9.557331420763714e-05,0.0011178638931657221,0,0
56102.03401126057,9.582844715484701e-05,0.001119899078764479,0,0
56202.067355854975,9.609514943779114e-05,0.0011219272495571224,0,0
56302.100700236224,9.636030551562845e-05,0.0011239286240598415,0,0
56402.13404461747,9.662569237958981e-05,0.0011259579117571512,0,0
56502.16738921188,9.687990656353461e-05,0.0011279542908913585,0,0
56602.20073359312,9.715487274002261e-05,0.0011299563709337766,0,0
56702.23407797437,9.741937229279946e-05,0.0011319726825438138,0,0
56802.26742256877,9.768900873750248e-05,0.0011339900802804204,0,0
56902.30076695002,9.795920734281345e-05,0.0011359705285608772,0,0
57002.33411133126,9.823272034573471e-05,0.0011379861829205525,0,0
57102.36745571251,9.850221152487853e-05,0.0011400217213004488,0,0
57202.40080030692,9.877736321089115e-05,0.0011420145291694932,0,0
57302.434144688166,9.905297315055574e-05,0.0011440129908137874,0,0
57402.46748906941,9.932217473326206e-05,0.0011460084177257533,0,0
57502.50083366381,9.959449358417777e-05,0.001147997734095685,0,0
57602.53417804506,9.987418038705006e-05,0.0011500098505075344,0,0
57702.56752242631,0.00010014761898020324,0.0011520298760043651,0,0
57802.600867020716,0.00010042549012575197,0.0011540238031667806,0,0
57902.63421140196,0.00010069813111929605,0.001155991617766557,0,0
58002.667555783206,0.00010097350861148576,0.001158003416988355,0,0
58102.70090037761,0.00010125689934741567,0.0011599832559649793,0,0
58202.73424475886,0.00010153506774064771,0.001161992039872684,0,0
58302.7675891401,0.00010180718670943834,0.001163959364120115,0,0
58402.800933734514,0.00010209160280467852,0.0011659431213549996,0,0
58502.834278115755,0.00010237437962084853,0.0011679755961800475,0,0
58602.867622497004,0.00010265256407266468,0.0011699693696421956,0,0
58702.90096709141,0.00010293362807309509,0.0011719678031735332,0,0
58802.93431147265,0.00010320909187204904,0.0011739197008364512,0,0
58902.9676558539,0.00010348504573938617,0.0011758966328891222,0,0
59003.00100023515,0.0001037760826200559,0.0011779421993884885,0,0
59103.03434482955,0.00010406192209471187,0.001179969065448713,0,0
59203.067689210795,0.00010434398607437664,0.0011819772818497908,0,0
59303.101033592044,0.00010462347218908134,0.0011839775790835132,0,0
59403.13437818645,0.00010490956731538383,0.0011859688471403665,0,0
59503.1677225677,0.00010519401465537783,0.0011879430676351816,0,0
59603.20106694894,0.00010547490587190238,0.001189910902135587,0,0
59703.23441154335,0.00010576777941900417,0.0011919316301888013,0,0
59803.26775592459,0.00010605476038536096,0.0011939705016674527,0,0
59903.30110030584,0.00010633917167171584,0.0011959238742992456,0,0
60003.33444490025,0.0001066278479165711,0.0011979485976993142,0,0
60103.36778928149,0.00010691911927350695,0.0011999653225573657,0,0
60203.40113366274,0.00010720952547653259,0.0012019401261952117,0,0
60303.43447825714,0.00010748671010443839,0.001203868647647023,0,0
60403.46782263839,0.00010778702455992505,0.0012059429213086084,0,0
60503.50116701963,0.00010807702843414417,0.0012079525379157217,0,0
60603.53451140088,0.00010837162429843423,0.0012099484185495743,0,0
60703.56785599529,0.00010866433350181232,0.0012119578574072037,0,0
60803.601200376535,0.00010895432338250365,0.00121393515267167,0,0
60903.63454475778,0.00010925023732544314,0.0012159342716313297,0,0
61003.66788935219,0.00010955117746631048,0.001217923105672392,0,0
61103.70123373343,0.00010984643919220624,0.0012199106667451318,0,0
61203.73457811468,0.00011014173129796805,0.0012219201376781907,0,0
61303.767922709085,0.00011044199909330865,0.0012239317322794555,0,0
61403.801267090326,0.0001107422922372498,0.0012259175257796195,0,0
61503.834611471575,0.00011104227425288058,0.001227931002016005,0,0
61603.86795606598,0.00011134215827960442,0.00122992167325858,0,0
61703.90130044723,0.00011164826586606263,0.0012319321505808954,0,0
61803.93464482847,0.0001119581034656387,0.001233971080877387,0,0
61903.96798942288,0.00011226298698277602,0.0012359281073793327,0,0
62004.001333804124,0.00011256899919278095,0.0012379149769401138,0,0
62104.03467818537,0.000112884666108343,0.00123997412371242,0,0
62204.06802277978,0.000113194759374619,0.001241984540326322,0,0
62304.10136716103,0.000113518527606726,0.001244001710616612,0,0
62404.13471154227,0.0001138411051723798,0.0012460242306782182,0,0
62504.16805592352,0.00011417306311543246,0.0012481297001453282,0,0
62604.20140051792,0.00011449098999086554,0.0012501323573470401,0,0
62704.234744899164,0.0001148184161965526,0.0012521428718752661,0,0
62804.26808928041,0.00011516091302249734,0.0012542090492296762,0,0
62904.30143387482,0.00011550260645189556,0.001256243906880656,0,0
63004.33477825607,0.00011584604302968641,0.0012582443832070383,0,0
63104.36812263731,0.00011620088976418138,0.0012603114691917049,0,0
63204.40146723172,0.00011656605064007911,0.0012624250021673125,0,0
63304.43481161296,0.00011693597038627371,0.0012644931131376908,0,0
63404.46815599421,0.00011731046301974186,0.0012665379358144432,0,0
63504.501500588616,0.00011769190011877014,0.0012685762549616893,0,0
63604.534844969865,0.00011809150276971854,0.0012706814313440727,0,0
63704.56818935111,0.00011851078407589468,0.0012728278589829972,0,0
63804.60153394552,0.0001189461361758889,0.001274944600859754,0,0
63904.63487832676,0.00011938402397825018,0.0012770916105133868,0,0
64004.668222708,0.0001198252639322137,0.001279180488971073,0,0
64104.70156708925,0.00012029626982152237,0.0012813486673686058,0,0
64204.734911683656,0.00012076105323494334,0.0012834865458392504,0,0
64304.768256064905,0.00012130845532736568,0.0012857247392495824,0,0
64404.801600446146,0.00012179515482638097,0.0012878791617000115,0,0
64504.83494504056,0.00012227584271584478,0.0012900242962400781,0,0
64604.8682894218,0.00012279038972040654,0.0012922711851845177,0,0
64704.90163380305,0.00012326931860611484,0.0012944397125471466,0,0
64804.934978397454,0.00012377680899572564,0.0012966514190681415,0,0
64904.9683227787,0.00012427855652322767,0.0012988490536747304,0,0
65005.001667159944,0.00012480357394017416,0.0013010764714097296,0,0
65105.03501175436,0.00012533560270710443,0.001303262454694837,0,0
65205.0683561356,0.00012589398862473687,0.0013054521923625065,0,0
65305.10170051684,0.0001264800908812584,0.0013076284170084153,0,0
65405.13504511125,0.0001271051790843259,0.0013097652173923889,0,0
65505.16838949249,0.0001278038703191344,0.0013118953258546007,0,0
65605.20173387374,0.00012852325743210435,0.0013139413507561003,0,0
65705.23507825499,0.00012926114016730426,0.0013158610983802523,0,0
65805.26842284939,0.00012994930748232595,0.0013176702260846924,0,0
65905.30176723065,0.00013051774047784936,0.0013193958243032857,0,0
66005.33511161189,0.0001309331068368345,0.0013210832006502788,0,0
66105.3684562063,0.00013121661545614202,0.0013228552674525835,0,0
66205.40180058754,0.00013145602075784947,0.0013247788910410276,0,0
66305.43514496878,0.00013171358131972347,0.001326829349735462,0,0
66405.4684895632,0.0001320258484190632,0.001328935744297171,0,0
66505.50183394444,0.00013243223446117835,0.0013311023265327505,0,0
66605.53517832568,0.0001329398556896924,0.0013333514602105207,0,0
66705.56852292009,0.00013357640781687982,0.0013356088115876609,0,0
66805.60186730133,0.0001343794028515717,0.0013378886610295223,0,0
66905.63521168257,0.00013536488908887255,0.001340049634911511,0,0
67005.66855627699,0.00013659850699961537,0.001342186960005222,0,0
67105.70190065823,0.00013811475287072694,0.0013440688756921363,0,0
67205.73524503948,0.0001398769090079172,0.001345440680270798,0,0
67305.76858963388,0.0001416347638565323,0.0013460476626799404,0,0
67405.80193401514,0.00014285210563925484,0.0013458294565232107,0,0
67505.83527839638,0.00014295740265870006,0.001345261198518973,0,0
67605.86862277762,0.00014194945363985492,0.001345113425556475,0,0
67705.90196737203,0.00014041601399756982,0.0013459152457212312,0,0
67805.93531175327,0.00013896651353995828,0.0013475592034810147,0,0
67905.96865613452,0.00013783568766144048,0.001349614311667554,0,0
68006.00200072893,0.00013706380259832326,0.001351972678349807,0,0
68106.03534511017,0.00013658350177554496,0.0013543670322253346,0,0
68206.06868949141,0.00013632076657254255,0.001356845718777981,0,0
68306.10203408582,0.00013619717832765173,0.0013592024589560486,0,0
68406.13537846706,0.00013618238904360627,0.0013615569094779416,0,0
68506.16872284832,0.00013624391330157632,0.0013638640865901853,0,0
68606.20206744272,0.00013637407252832154,0.0013661411680737942,0,0
68706.23541182397,0.00013652132094666995,0.001368341398287858,0,0
68806.26875620522,0.0001367088767402852,0.0013705161647816217,0,0
68906.30210079963,0.00013692357130842145,0.001372715236935637,0,0
69006.33544518087,0.00013714503136851697,0.0013748626335512654,0,0
69106.36878956211,0.0001373941436850678,0.0013770283536306193,0,0
69206.40213394335,0.00013764508172147308,0.0013791562187998394,0,0
69306.43547853777,0.00013790619248739894,0.0013812556436986062,0,0
69406.468822919,0.0001381673923004968,0.0013833576526308163,0,0
69506.50216730025,0.00013844201930140505,0.0013854279798965515,0,0
69606.53551189466,0.00013873230085111694,0.0013875223845564945,0,0
69706.5688562759,0.00013904958873599366,0.0013895766633191138,0,0
69806.60220065716,0.00013935986092660475,0.0013916483447643504,0,0
69906.63554525156,0.00013966037660807687,0.001393670864946384,0,0
70006.66888963281,0.0001399547302271646,0.0013956927181644908,0,0
70106.70223401405,0.00014023863452576992,0.001397692614599382,0,0
70206.73557860847,0.00014053439121241226,0.0013997552528249558,0,0
70306.76892298971,0.00014082621913145014,0.0014017777288498174,0,0
70406.80226737095,0.00014111726328497727,0.0014037835848846744,0,0
70506.83561196536,0.00014141745786798137,0.0014058489541807656,0,0
70606.8689563466,0.00014171716594547446,0.0014078296912221945,0,0
70706.90230072784,0.00014200927808824532,0.0014098705541329174,0,0
70806.93564510909,0.00014230351885590514,0.0014119055328982878,0,0
70906.9689897035,0.0001426059343146128,0.0014138798597421352,0,0
71007.00233408474,0.00014290841188786097,0.001415894138156424,0,0
71107.035678466,0.0001432031618472287,0.0014178805582636487,0,0
71207.0690230604,0.00014350770936437493,0.0014198810942857593,0,0
71307.10236744165,0.00014381092909478057,0.001421891637785672,0,0
71407.13571182289,0.0001441122490972164,0.0014239297233448042,0,0
71507.1690564173,0.00014441250293324148,0.0014258920596936437,0,0
71607.20240079855,0.00014472033059940152,0.0014278885400635076,0,0
71707.23574517979,0.0001450270693595826,0.0014299307297462335,0,0
71807.2690897742,0.00014532884944808288,0.0014318955103738795,0,0
71907.30243415544,0.00014563464002992062,0.0014338804795628146,0,0
72007.33577853668,0.0001459469850683725,0.0014358706865071028,0,0
72107.3691231311,0.0001462489533739613,0.0014378113392643516,0,0
72207.40246751234,0.00014655993745065908,0.0014398362085909617,0,0
72307.43581189358,0.0001468612268173206,0.001441847133236089,0,0
72407.46915648799,0.00014716532284869826,0.0014437895644379083,0,0
72507.50250086923,0.0001474842973016139,0.0014457944646561764,0,0
72607.53584525049,0.00014779828340912517,0.001447744037764289,0,0
72707.56918963173,0.00014810914723905748,0.0014497767509240693,0,0
72807.60253422614,0.0001484239727084865,0.00145172964822273,0,0
72907.63587860738,0.00014874462264122444,0.0014537716434213522,0,0
73007.66922298862,0.0001490530657153808,0.001455728418869789,0,0
73107.70256758304,0.0001493747909998562,0.0014577512344007212,0,0
73207.73591196428,0.00014968902890533697,0.0014596953241629964,0,0
73307.76925634552,0.00015000519869974758,0.001461678445680761,0,0
73407.80260093993,0.00015033406138406787,0.0014636733487458252,0,0
73507.83594532117,0.0001506596600183291,0.001465680172061138,0,0
73607.86928970242,0.00015098004198982364,0.0014676538368039991,0,0
73707.90263429683,0.0001513042249246532,0.0014696448623378459,0,0
73807.93597867807,0.0001516316695297321,0.0014716834225841817,0,0
73907.96932305933,0.00015195922780459793,0.0014736565089210514,0,0
74008.00266765372,0.0001522882988940193,0.0014756454849617637,0,0
74108.03601203498,0.00015261281070446406,0.0014776022771708212,0,0
74208.06935641622,0.00015294027085083667,0.0014795799779882643,0,0
74308.10270079746,0.00015327724723725015,0.0014816043301085857,0,0
74408.13604539188,0.00015360028568132592,0.0014835779405421076,0,0
74508.16938977312,0.0001539238409067733,0.0014855762572780196,0,0
74608.20273415436,0.00015425396891159096,0.0014875235459240737,0,0
74708.23607874877,0.00015458654134780224,0.0014895050057988511,0,0
74808.26942313001,0.00015492807273459816,0.001491543636723074,0,0
74908.30276751125,0.0001552605802850701,0.0014934964429375599,0,0
75008.33611210567,0.00015560039202734514,0.001495521640347428,0,0
75108.36945648691,0.00015594277611818386,0.0014975701401156113,0,0
75208.40280086816,0.00015628115072837008,0.0014995091752303521,0,0
75308.43614546256,0.00015660922821710422,0.001501528198324347,0,0
75408.46948984382,0.00015693612269610484,0.001503511661463873,0,0
75508.50283422506,0.00015727032262592236,0.001505483866077116,0,0
75608.53617881946,0.00015761350182844942,0.0015074927327198174,0,0
75708.56952320071,0.00015795451142382,0.0015095554459429276,0,0
75808.60286758195,0.0001582921128503696,0.001511526450157678,0,0
75908.63621217637,0.00015862588952506596,0.0015134830854936162,0,0
76008.66955655761,0.0001589690779006033,0.0015154822964009694,0,0
76108.70290093885,0.00015931736904879298,0.0015175157382444071,0,0
76208.73624532009,0.00015965146011839314,0.0015194526160006905,0,0
76308.7695899145,0.0001599887152388289,0.0015214386324790405,0,0
76408.80293429575,0.00016034228307189945,0.001523453406312521,0,0
76508.836278677,0.00016068369351605107,0.0015254448034066565,0,0
76608.8696232714,0.00016103037539485918,0.0015274558052909117,0,0
76708.90296765266,0.00016138184798401254,0.0015295019430253646,0,0
76808.9363120339,0.00016172396084222475,0.0015314635510059846,0,0
76908.9696566283,0.00016206909580294108,0.0015334535519756158,0,0
77009.00300100955,0.00016241794495151917,0.0015354287863898217,0,0
77109.03634539079,0.0001627746416015137,0.0015374671068439792,0,0
77209.0696899852,0.00016311957365915605,0.0015394237743880908,0,0
77309.10303436645,0.0001634936921171452,0.0015414604380868347,0,0
77409.13637874769,0.00016384872770097263,0.0015434390877470247,0,0
77509.1697233421,0.00016420658930206357,0.0015455039243393255,0,0
77609.20306772334,0.00016456245533139096,0.0015474679455750099,0,0
77709.23641210458,0.00016492578456117415,0.0015494944240635748,0,0
77809.26975648584,0.00016529227669773259,0.0015515035259372663,0,0
77909.30310108024,0.00016566274038510014,0.0015535496252971157,0,0
78009.3364454615,0.0001660381181182677,0.0015555457017233515,0,0
78109.36978984273,0.00016641720031478402,0.001557562862054432,0,0
78209.40313443713,0.0001668015314924037,0.0015595522698958213,0,0
78309.43647881839,0.00016719369847561214,0.0015615809562607725,0,0
78409.46982319963,0.00016759246339862366,0.001563564674192531,0,0
78509.50316779404,0.00016800421341017235,0.0015655664346390867,0,0
78609.53651217528,0.00016841015475903525,0.0015675731253699833,0,0
78709.56985655653,0.00016881144571121923,0.0015694676753910339,0,0
78809.60320115094,0.00016922254093500966,0.0015714388784341692,0,0
78909.63654553218,0.0001696297847931742,0.0015734219443972657,0,0
79009.66988991342,0.00017000239305795656,0.0015753536075592603,0,0
79109.70323450783,0.00017035711260537253,0.0015772884999287911,0,0
79209.73657888907,0.00017068923451307624,0.0015791799086474695,0,0
79309.76992327033,0.00017101725172926187,0.0015811917424695665,0,0
79409.80326765157,0.0001713333318045703,0.001583184153582993,0,0
79509.83661224597,0.00017165729379890057,0.0015851376696513534,0,0
79609.86995662723,0.000171976102286428,0.001587187663506262,0,0
79709.90330100847,0.00017231215592383985,0.0015892027003607252,0,0
79809.93664560288,0.00017264417360025468,0.0015911712409379633,0,0
79909.96998998412,0.000172996101749181,0.001593194509735074,0,0
